id;pos_x[m];pos_y[m];pos_z[m];or_x[rad];or_y[rad];or_z[rad];or_q_x;or_q_y;or_q_z;or_q_w
0;3.701841354370117;-2.1686346530914307;-5.4984965324401855;-0.008225968614017677;-0.015074013104673545;1.4376762395935545;0.0018678936176002026;-0.008380393497645855;0.6584631204605103;0.7525639533996582
1;3.8100459575653076;-1.990720510482788;-5.498874187469482;-0.008367116190219227;-0.014148353090622295;1.4539144366673555;0.0015755444765090942;-0.008066046983003616;0.6645545959472656;0.7471944093704224
2;3.941399335861206;-1.775063395500183;-5.498708248138428;-0.008689896829041859;-0.01276612153370506;1.4775420010992688;0.0010860241018235683;-0.007644630968570709;0.6733392477035522;0.7392933368682861
3;4.067399024963379;-1.5684771537780762;-5.497931003570557;-0.008918923167368413;-0.011877175987840355;1.5033172003162731;0.0007972856983542442;-0.007383496500551701;0.6828132271766663;0.7305551171302795
4;4.176491737365723;-1.3898563385009766;-5.496782302856445;-0.00905900992586011;-0.011300801538322528;1.5275071169246728;0.0006366183515638113;-0.007213624194264412;0.6916006803512573;0.7222437262535095
5;4.302907943725586;-1.1829832792282104;-5.494906425476074;-0.006624347372148043;-0.00874197442463113;1.5575297323016026;0.0007126405835151672;-0.00543760834261775;0.7023799419403076;0.7117811441421509
6;4.414891719818115;-0.9948760271072388;-5.492919921875;0.033938418766583545;-0.006757498108708625;1.596461525414134;0.014262689277529716;0.00979344081133604;0.716055154800415;0.6978291869163513
7;4.528556823730469;-0.7885246276855469;-5.490276336669922;0.17692339770823717;-0.01320124505634975;1.6638276679032349;0.06435685604810715;0.060878265649080276;0.7367078065872192;0.6703832149505615
8;4.612886428833008;-0.6304269433021545;-5.487608432769775;0.27632440200295316;-0.021397945059533654;1.73466092727855;0.09716426581144333;0.0981675535440445;0.7562476992607117;0.6395401954650879
9;4.704137325286865;-0.4549058675765991;-5.48564338684082;0.3226761411501715;-0.0336867469365154;1.8310670297186449;0.11105519533157349;0.11722064018249512;0.7841284275054932;0.5992233753204346
10;4.810362815856934;-0.25014227628707886;-5.487252235412598;0.20834046081943583;-0.04319428864850192;1.9499244609695996;0.07611823827028275;0.0739901065826416;0.8242622017860413;0.5561683773994446
11;4.9086174964904785;-0.038358379155397415;-5.487664699554443;0.13081725685280102;-0.03794097242492485;2.0572657027023444;0.04993438720703125;0.04621157795190811;0.8552485704421997;0.5137322545051575
12;4.983566761016846;0.13525938987731934;-5.488104820251465;0.0905092454811621;-0.029085403295321447;2.128026571738691;0.03465665876865387;0.0324978269636631;0.8736422657966614;0.484243780374527
13;5.065784454345703;0.33513912558555603;-5.4891886711120605;0.06055953091287801;-0.018863554733272073;2.1932974052905734;0.022209729999303818;0.02262973040342331;0.8893651962280273;0.4560965895652771
14;5.137619972229004;0.515918493270874;-5.4908447265625;0.04349442456090567;-0.011002537082104127;2.2404306747554004;0.014420787803828716;0.017179716378450394;0.9000198245048523;0.435271292924881
15;5.20410680770874;0.6869302988052368;-5.493056297302246;0.03289001713075934;-0.005115389406568129;2.2768393863523744;0.009212616831064224;0.013859289698302746;0.9078642725944519;0.41893360018730164
16;5.279600620269775;0.8841168880462646;-5.49641752243042;0.024951908686044383;-4.4226554722566614e-05;2.3110817931554055;0.005053197033703327;0.011406447738409042;0.91494220495224;0.4033920168876648
17;5.3573408126831055;1.0893559455871582;-5.500858783721924;0.01979031539134433;0.0036647318981560192;2.339895832302529;0.0021739862859249115;0.009825560264289379;0.920676589012146;0.3901965916156769
18;5.430916786193848;1.2848224639892578;-5.505992889404297;0.016699825252685662;0.006094694194636842;2.362387858412656;0.000352540984749794;0.00888144876807928;0.9250139594078064;0.37982919812202454
19;5.487391948699951;1.435304045677185;-5.5105485916137695;0.015102418166357065;0.007430790149912518;2.377131311211808;-0.000630680238828063;0.008391927927732468;0.9277915358543396;0.3730038106441498
20;5.550217628479004;1.6029154062271118;-5.516244411468506;0.013858695232191123;0.008519291874472002;2.3914630866922155;-0.0014250203967094421;0.008007941767573357;0.9304423332214355;0.3663482069969177
21;5.6062211990356445;1.7523696422576904;-5.521862506866455;0.013081685182572316;0.00923097121554007;2.4027404247552138;-0.0019422657787799835;0.0077659739181399345;0.9324939250946045;0.36109688878059387
22;5.658785820007324;1.8924200534820557;-5.527531623840332;0.014073095094068393;0.011075255896215405;2.4122925525257046;-0.0026640358846634626;0.008548513054847717;0.9341972470283508;0.3566444516181946
23;5.723757743835449;2.065322160720825;-5.534933567047119;0.033821388496121894;0.019811748336131835;2.423320080633788;-0.0033294539898633957;0.019311293959617615;0.9359620809555054;0.35155507922172546
24;5.773121356964111;2.1975715160369873;-5.5403242111206055;0.11517523775022727;0.044735791471749387;2.4338658754553166;-0.001005975529551506;0.06171371415257454;0.93580561876297;0.34707096219062805
25;5.844547748565674;2.376415967941284;-5.544677734375;0.258953122269042;0.1359467183899056;2.4693363382630458;-0.02109512686729431;0.14382337033748627;0.9310824275016785;0.33459705114364624
26;5.892759799957275;2.4944090843200684;-5.546479225158691;0.3390843728812962;0.17869242714300182;2.5062191267345773;-0.031050901859998703;0.18712089955806732;0.9279024004936218;0.32096511125564575
27;5.9600725173950195;2.6500003337860107;-5.549097061157227;0.4205460922661666;0.2108316218949629;2.574783964775763;-0.04075673967599869;0.22806254029273987;0.9276081323623657;0.29303500056266785
28;6.0153961181640625;2.769869565963745;-5.555302143096924;0.3676540450691925;0.1843067197882988;2.627026027499831;-0.04117939993739128;0.19904780387878418;0.9424761533737183;0.26537302136421204
29;6.068434715270996;2.880007028579712;-5.56251335144043;0.2589920675934377;0.12031995598302479;2.6750399677189214;-0.028207896277308464;0.1391916275024414;0.9612280130386353;0.23636987805366516
30;6.114752292633057;2.9681570529937744;-5.567551136016846;0.1898542251525333;0.07958292280273022;2.71948775234318;-0.0188825074583292;0.10090422630310059;0.9718482494354248;0.21206782758235931
31;6.174262523651123;3.0728840827941895;-5.573793888092041;0.12737125773796346;0.04810784999402715;2.770971929315519;-0.011869044974446297;0.06695744395256042;0.9803206920623779;0.18532931804656982
32;6.23563814163208;3.174971580505371;-5.580691337585449;0.0836346922053214;0.022255183469112594;2.814709967733568;-0.004167580511420965;0.043054476380348206;0.9856739044189453;0.16302132606506348
33;6.286530494689941;3.270340919494629;-5.587581157684326;0.05351318663666383;-0.09070992757606289;2.8425317157177767;0.04879888892173767;0.019675686955451965;0.9876514077186584;0.1475679576396942
34;6.324153423309326;3.3521926403045654;-5.592574119567871;0.030137025650068646;-0.2330866579229396;2.86135285881562;0.11721714586019516;-0.0014189323410391808;0.9836151599884033;0.13696371018886566
35;6.361362934112549;3.4465556144714355;-5.597646236419678;0.008340115284203774;-0.35546044209842115;2.8834305777667715;0.1758519858121872;-0.018687279894948006;0.9761455059051514;0.12596292793750763
36;6.388144016265869;3.5345540046691895;-5.603612422943115;-0.024151671606882218;-0.34153273385669497;2.9037027453107567;0.16731250286102295;-0.03197994455695152;0.9781771302223206;0.11896774917840958
37;6.4078874588012695;3.6325156688690186;-5.610686302185059;-0.02909450154704001;-0.21749923590081482;2.9237026877373866;0.10630819201469421;-0.02617483213543892;0.987922728061676;0.10964532196521759
38;6.409843444824219;3.7359511852264404;-5.612649917602539;-0.026063824073418864;-0.14244295121934472;2.9460209493339726;0.06954626739025116;-0.019883301109075546;0.9925248622894287;0.09829721599817276
39;6.403170108795166;3.8188464641571045;-5.611094951629639;-0.023199857997771647;-0.10381220129448039;2.964673669456774;0.05065307766199112;-0.016121987253427505;0.9946283102035522;0.08881870657205582
40;6.387268543243408;3.928966999053955;-5.605303764343262;-0.019949203112551633;-0.07021460893787539;2.9903143931563205;0.03424471989274025;-0.012592066079378128;0.9964501857757568;0.07586579024791718
41;6.365668773651123;4.041466236114502;-5.595344066619873;-0.017305747618296816;-0.04878471842521463;3.017278019630153;0.02380460500717163;-0.010148468427360058;0.9977213740348816;0.06230710819363594
42;6.342658519744873;4.145246982574463;-5.582942962646484;-0.015393065166022356;-0.03614007455290193;3.042633711521191;0.017665807157754898;-0.008579438552260399;0.9985765814781189;0.0495886355638504
43;6.315340995788574;4.260331153869629;-5.568535804748535;-0.013707287266505979;-0.027104610994465945;3.0695089399698086;0.013295832090079784;-0.007336828391999006;0.9992319345474243;0.03612271323800087
44;6.289431095123291;4.365453243255615;-5.556204319000244;-0.01240233164676333;-0.02182232739685749;3.0903444349894227;0.010748285800218582;-0.006478269584476948;0.9995911121368408;0.02568691410124302
45;6.261140823364258;4.465620040893555;-5.545141696929932;-0.009542635170017215;-0.055120938657471134;3.1073483480411297;0.027470968663692474;-0.00524059496819973;0.9994600415229797;0.017246080562472343
46;6.222171306610107;4.565603733062744;-5.533436298370361;-0.00028975182169061235;-0.202077412501979;3.1224170701301506;0.10086085647344589;-0.001111206249333918;0.9948540925979614;0.009553360752761364
47;6.171258449554443;4.6854777336120605;-5.51922607421875;0.02112353293794973;-0.34035334486327684;3.136505988365516;0.16937294602394104;0.00997826736420393;0.9855012893676758;0.000717787304893136
48;6.131239414215088;4.766302108764648;-5.510261058807373;0.061604825858030884;-0.4039185184411217;-3.139756234949921;-0.20046620070934296;-0.030355677008628845;-0.9792047142982483;0.0070767696015536785
49;6.063982009887695;4.8784074783325195;-5.499290466308594;0.14173588712426538;-0.45357458664652506;-3.132174961611464;-0.22395649552345276;-0.07005085051059723;-0.9718621969223022;0.0204977598041296
50;5.99879264831543;4.96523380279541;-5.492191791534424;0.22470354836178888;-0.4511826328662193;-3.1219348524936996;-0.22118766605854034;-0.11145414412021637;-0.9682237505912781;0.03459640219807625
51;5.920478820800781;5.044477939605713;-5.4855146408081055;0.29859223470683716;-0.43054994081972703;-3.1044897289381805;-0.20850792527198792;-0.1492023915052414;-0.9652947783470154;0.04968886077404022
52;5.804819583892822;5.124934196472168;-5.4767303466796875;0.3627410701807805;-0.4036595776923605;-3.068096474614624;-0.19054855406284332;-0.18384121358394623;-0.9616527557373047;0.07153819501399994
53;5.694164276123047;5.17617130279541;-5.469169616699219;0.3971020095022898;-0.38818962710870636;-3.0238851654424415;-0.1773773580789566;-0.20433227717876434;-0.9580416679382324;0.09456059336662292
54;5.565234661102295;5.215632915496826;-5.462542533874512;0.3830830639338056;-0.36186533586300823;-2.959071359309585;-0.1588548868894577;-0.20258499681949615;-0.9585461616516113;0.12212132662534714
55;5.457823276519775;5.246656894683838;-5.4621500968933105;0.24994486096823573;-0.27558441437747205;-2.884729091049698;-0.11934950947761536;-0.13990435004234314;-0.972509503364563;0.14285574853420258
56;5.338235378265381;5.269392013549805;-5.45958137512207;0.16711177189131318;-0.20616265700919867;-2.8302987521646727;-0.08843129128217697;-0.09790779650211334;-0.9779078960418701;0.16214244067668915
57;5.214754104614258;5.285346984863281;-5.456523895263672;0.11450336239239625;-0.15190303239537895;-2.7907811087657146;-0.06463519483804703;-0.06939966976642609;-0.9794507622718811;0.17799466848373413
58;5.0506696701049805;5.299036979675293;-5.452706336975098;0.07154226610428151;-0.10132096799897869;-2.7533475755900922;-0.042765770107507706;-0.0448090136051178;-0.978982150554657;0.19431187212467194
59;4.883305549621582;5.307338237762451;-5.449522495269775;0.04593804406146205;-0.06748723842748908;-2.7257590989141076;-0.028263714164495468;-0.029421836137771606;-0.9774882197380066;0.2070082575082779
60;4.73704719543457;5.311616897583008;-5.447471618652344;0.03208688323936273;-0.04766522843468225;-2.7072576708907268;-0.01981196738779545;-0.020795423537492752;-0.9760262966156006;0.2157488912343979
61;4.5586466789245605;5.314390182495117;-5.445952415466309;0.021554619751742585;-0.03159570793822715;-2.689548766065524;-0.012979636900126934;-0.014041665941476822;-0.9743492603302002;0.22422738373279572
62;4.433976173400879;5.315230369567871;-5.44554328918457;0.016797832708481543;-0.02397584544404912;-2.679516012013515;-0.009745609946548939;-0.010919999331235886;-0.9733017683029175;0.2290618121623993
63;4.277731418609619;5.3153910636901855;-5.445791721343994;0.01276210987264326;-0.017268416193149887;-2.6689962124032665;-0.006900226231664419;-0.008224708028137684;-0.9721422791481018;0.2341453731060028
64;4.1055450439453125;5.314734935760498;-5.447047710418701;0.009926588038223771;-0.012384294284768838;-2.659448047491458;-0.004828044679015875;-0.006297966931015253;-0.9710445404052734;0.23876632750034332
65;3.9566988945007324;5.313650608062744;-5.448964595794678;0.00834550798788165;-0.009578704246760857;-2.6525207219336977;-0.0036365746054798365;-0.005208072252571583;-0.9702253937721252;0.2421206533908844
66;3.7764394283294678;5.3115644454956055;-5.452305793762207;0.01019281542057526;-0.009133577118978957;-2.645400813000185;-0.0031754402443766594;-0.006061687599867582;-0.9693533182144165;0.2455754280090332
67;3.627547025680542;5.308976173400879;-5.4558234214782715;0.017061415824887044;-0.011846304013115132;-2.6403060674306267;-0.0036220443435013294;-0.009732944890856743;-0.9686883091926575;0.24806278944015503
68;3.470867872238159;5.305660247802734;-5.460100173950195;0.024169309273767123;-0.01480615016090405;-2.635376831613161;-0.004140605218708515;-0.01355270016938448;-0.9680191874504089;0.2504754960536957
69;3.345503568649292;5.302634239196777;-5.463861465454102;0.026703582964938848;-0.016653300464212446;-2.631597808472002;-0.0046889097429811954;-0.015019342303276062;-0.9675161242485046;0.2523192763328552
70;3.2122950553894043;5.298933506011963;-5.468165397644043;0.026761020100963127;-0.018063066373579278;-2.627695743599256;-0.005333973094820976;-0.015235263854265213;-0.9670132398605347;0.2542141377925873
71;3.0634443759918213;5.294029235839844;-5.473339080810547;0.025690071021701642;-0.019146081800645004;-2.6234489126338465;-0.005962221417576075;-0.01486767828464508;-0.9664726257324219;0.2562694847583771
72;2.9067463874816895;5.287975788116455;-5.479196071624756;0.023564468770167074;-0.01990556680186904;-2.619078909226798;-0.006571149453520775;-0.013952123001217842;-0.9659209251403809;0.2583775520324707
73;2.734348773956299;5.280209064483643;-5.486116886138916;0.021403498245788;-0.020440692587899247;-2.614371822574654;-0.007078220136463642;-0.012994222342967987;-0.9653212428092957;0.26064494252204895
74;2.5619423389434814;5.271336555480957;-5.493539333343506;0.02001337756215775;-0.019908187384869738;-2.6101314503458193;-0.006976349279284477;-0.012268736958503723;-0.9647786021232605;0.2626842260360718
75;2.389512538909912;5.2614426612854;-5.501511573791504;0.01914485592079636;-0.018293738635544197;-2.6072230474578735;-0.006294651888310909;-0.011647038161754608;-0.9644103050231934;0.2640784680843353
76;2.209185838699341;5.250041961669922;-5.510465621948242;0.018723071101368904;-0.01649713553534655;-2.6058024406243154;-0.005476006306707859;-0.011210466735064983;-0.9642346501350403;0.2647560238838196
77;2.060256242752075;5.239772796630859;-5.518337726593018;0.019792103986869772;-0.014971731801036284;-2.6056909617004806;-0.004598392639309168;-0.011524304747581482;-0.9642215967178345;0.2648070156574249
78;1.8879928588867188;5.226961612701416;-5.527982234954834;0.022543593150503922;-0.012194156143310505;-2.6064697087101467;-0.0028998006600886583;-0.012482132762670517;-0.9643210768699646;0.26442500948905945
79;1.731987714767456;5.2140727043151855;-5.537208557128906;0.032187058196726924;-0.007639527104443545;-2.6077894856283272;0.0005603272002190351;-0.016530225053429604;-0.9644445180892944;0.26376718282699585
80;1.5848445892333984;5.200553894042969;-5.546281814575195;0.04930672297642637;0.0014122737231235208;-2.609266765236199;0.007165015675127506;-0.023597152903676033;-0.9644984602928162;0.26293468475341797
81;1.4308216571807861;5.185156345367432;-5.556094169616699;0.06523981725734412;0.010903837427725981;-2.6110602746489766;0.013808593153953552;-0.03004436194896698;-0.9645416736602783;0.2618512213230133
82;1.308876633644104;5.171387672424316;-5.564009189605713;0.0817240361205533;0.01891160416196083;-2.6124694879878105;0.019800454378128052;-0.036957114934921265;-0.9644594788551331;0.2608833909034729
83;1.2041394710540771;5.157503128051758;-5.5706915855407715;0.10882662146472337;0.03029287039712306;-2.6128773044469136;0.028807030990719795;-0.04853949323296547;-0.9639365673065186;0.2600775361061096
84;1.0800426006317139;5.138026714324951;-5.578047275543213;0.15254224318983048;0.049349533762390714;-2.6103183444022675;0.04373519495129585;-0.06704399734735489;-0.9623208045959473;0.25986719131469727
85;0.9809941053390503;5.119421005249023;-5.583209037780762;0.192225592245817;0.0671133902692729;-2.603808019893772;0.057675547897815704;-0.08359240740537643;-0.9599313139915466;0.2611846625804901
86;0.8853489756584167;5.098167896270752;-5.587669372558594;0.2334873243252744;0.08486197740366899;-2.5895936602662912;0.0722479447722435;-0.10048878937959671;-0.9560904502868652;0.26565641164779663
87;0.7809655070304871;5.070405006408691;-5.59218692779541;0.2826493289326624;0.10499632316180119;-2.561145888740093;0.09003064036369324;-0.11991160362958908;-0.9494354128837585;0.2758408784866333
88;0.695280909538269;5.042462348937988;-5.595513343811035;0.33635848121046785;0.12557334787485946;-2.523267893107216;0.10975642502307892;-0.1403157114982605;-0.9404938220977783;0.289372056722641
89;0.614932119846344;5.011471271514893;-5.59866189956665;0.38786537787784947;0.14365896070092138;-2.473998696672495;0.12951377034187317;-0.1585400253534317;-0.9292346239089966;0.30759432911872864
90;0.5404589772224426;4.977211952209473;-5.601907253265381;0.43272489755616883;0.15489182113970307;-2.4151630227466576;0.14667731523513794;-0.17322438955307007;-0.9161298274993896;0.33043184876441956
91;0.4590340554714203;4.93101167678833;-5.60624885559082;0.47545342312305133;0.1578243802275093;-2.332570691387892;0.16282492876052856;-0.18566201627254486;-0.8979664444923401;0.3642442524433136
92;0.4005415141582489;4.889124870300293;-5.610159397125244;0.5024055465391563;0.1534132870576281;-2.2553981240775447;0.17331621050834656;-0.1920802891254425;-0.8806667327880859;0.39685338735580444
93;0.3442763090133667;4.8371968269348145;-5.614945411682129;0.5260950363559256;0.1427660838836922;-2.156939795027756;0.18328453600406647;-0.1960064023733139;-0.8575218915939331;0.4389127194881439
94;0.3041130602359772;4.7890825271606445;-5.619858264923096;0.5317420136810264;0.12992621585200992;-2.062099180995438;0.1884792149066925;-0.19273145496845245;-0.834717869758606;0.48018357157707214
95;0.2636371850967407;4.729273796081543;-5.628447532653809;0.47866133682597556;0.11179544768041444;-1.9386205331243374;0.17868143320083618;-0.16443023085594177;-0.8072381019592285;0.5379613041877747
96;0.2287091761827469;4.66322660446167;-5.639445781707764;0.363370652680672;0.03938841180753768;-1.835064346479983;0.12517805397510529;-0.131684809923172;-0.7830448150634766;0.5948363542556763
97;0.20538684725761414;4.60007381439209;-5.648631572723389;0.27048440380669464;0.0023426038906322094;-1.7277107826725813;0.0884561538696289;-0.10176465660333633;-0.753511369228363;0.6434593200683594
98;0.18835194408893585;4.531688213348389;-5.657785892486572;0.19479659027097732;-0.01595436046378683;-1.6241497116874624;0.06113976240158081;-0.07603175938129425;-0.7217200398445129;0.685274600982666
