id;pos_x[m];pos_y[m];pos_z[m];or_x[rad];or_y[rad];or_z[rad];or_q_x;or_q_y;or_q_z;or_q_w
0;3.705632209777832;0.1151246726512909;-3.5544285774230957;0.01631606982405043;-0.016354440653278603;2.1376689902288675;0.011093196459114552;0.0032170801423490047;0.8766139149665833;0.4810556471347809
1;3.7039973735809326;0.2694684863090515;-3.561673164367676;0.015872403247502647;-0.016600486957801957;2.139119658948232;0.011092165485024452;0.0029714684933423996;0.8769629001617432;0.4804208278656006
2;3.701754570007324;0.414788156747818;-3.5671565532684326;0.015569303865103612;-0.016770956892841953;2.1406651217345285;0.011091935448348522;0.0028061787597835064;0.8773339986801147;0.47974374890327454
3;3.6973342895507812;0.6238043308258057;-3.5726687908172607;0.015266796387933618;-0.016942499378635425;2.143274197481349;0.011091173626482487;0.002646791748702526;0.8779591917991638;0.47859957814216614
4;3.692624092102051;0.7965892553329468;-3.575108528137207;0.01509788735634242;-0.017038341243178948;2.145759730819747;0.011089646257460117;0.0025634877383708954;0.8785533308982849;0.4775085151195526
5;3.6866371631622314;0.9785182476043701;-3.5756139755249023;0.015521347257636337;-0.016380428299775342;2.149003239731342;0.010897034779191017;0.002924296073615551;0.8793272376060486;0.4760843515396118
6;3.6793408393859863;1.150773525238037;-3.5741209983825684;0.02667629249200624;-0.0133333187378859;2.155159520207305;0.012186296284198761;0.008591721765697002;0.8807586431503296;0.4733304977416992
7;3.6690292358398438;1.3490170240402222;-3.570103645324707;0.04811192898711982;-0.004131078560459394;2.172648487550009;0.01303005963563919;0.020323799923062325;0.8846861720085144;0.46556156873703003
8;3.652906656265259;1.5406224727630615;-3.563729763031006;0.14241591005828566;0.02790974637409147;2.2072987394437473;0.019609907642006874;0.0697869211435318;0.8900602459907532;0.4500422179698944
9;3.6307179927825928;1.730568528175354;-3.554318428039551;0.29031069952909466;0.0905197942370683;2.2751636252679126;0.02002594992518425;0.14994288980960846;0.8944090008735657;0.42089027166366577
10;3.6090056896209717;1.8804384469985962;-3.545980453491211;0.3803918654487875;0.1242726896156982;2.351762898241609;0.016310088336467743;0.1976226270198822;0.900118887424469;0.38789865374565125
11;3.585469961166382;2.005850076675415;-3.53865909576416;0.4395771657547314;0.13738834712026401;2.4316925231948865;0.012780793011188507;0.227231964468956;0.9077476859092712;0.3524152338504791
12;3.553880214691162;2.1328091621398926;-3.530673027038574;0.4875324618446834;0.13821650506763025;2.5321244803826595;0.008320137858390808;0.249795600771904;0.9185143709182739;0.30637285113334656
13;3.5209574699401855;2.232229471206665;-3.5236198902130127;0.5179352942718402;0.1307466884358268;2.6317357236635712;0.0033324435353279114;0.2632017135620117;0.9291970729827881;0.2594350278377533
14;3.474440813064575;2.3487374782562256;-3.519474506378174;0.4230337012786823;0.08651935573075016;2.757581263610882;-0.001479804515838623;0.21396103501319885;0.9571160674095154;0.19531305134296417
15;3.4215667247772217;2.4507150650024414;-3.5160512924194336;0.2850401312073249;0.028821106258978883;2.869045774898184;0.005162443965673447;0.14264445006847382;0.9803043603897095;0.13648848235607147
16;3.365934371948242;2.5390515327453613;-3.5116453170776367;0.18992986613037516;0.004763362767922176;2.9631898192812107;0.00608552061021328;0.09465622156858444;0.9915132522583008;0.088906429708004
17;3.321878671646118;2.6007323265075684;-3.5083093643188477;0.13872189144727556;-0.0009661907212492892;3.023150168704401;0.00458303838968277;0.06915531307458878;0.995848536491394;0.05901089310646057
18;3.2662322521209717;2.6684155464172363;-3.504789113998413;0.0953760379645616;-0.03936362559261249;3.07705048438987;0.021185727789998055;0.047001615166664124;0.9981800317764282;0.0312848836183548
19;3.192485809326172;2.740900754928589;-3.5002245903015137;0.033833387341130415;-0.20899517831571074;3.1159502691415257;0.1044997125864029;0.015485111624002457;0.994343638420105;0.010984769091010094
20;3.1146373748779297;2.81093430519104;-3.495375633239746;-0.024586827881680193;-0.3404775259446461;-3.127967400899475;-0.169483482837677;0.010961036197841167;-0.9854611158370972;0.004630963318049908
21;3.049353837966919;2.8640332221984863;-3.492659330368042;-0.057595111007705174;-0.40705493211394217;-3.099214625433315;-0.20259356498718262;0.023912200704216957;-0.9788571000099182;0.01492290198802948
22;2.9677319526672363;2.9226040840148926;-3.4909918308258057;-0.07313149742148499;-0.458116866527566;-3.070859631780878;-0.22802585363388062;0.027557171881198883;-0.9729145765304565;0.02611696347594261
23;2.8691558837890625;2.984611749649048;-3.490658760070801;-0.07694885884171243;-0.4943682207392359;-3.045641829474286;-0.24600085616111755;0.0255277156829834;-0.9682241678237915;0.03706438094377518
24;2.7612369060516357;3.0440635681152344;-3.4914281368255615;-0.07355119838609599;-0.5177481223999301;-3.0253511996219733;-0.2574518322944641;0.020622139796614647;-0.9649407267570496;0.04671821743249893
25;2.6516711711883545;3.097628116607666;-3.492847204208374;-0.0682834838730347;-0.5324527433386415;-3.0096445519074155;-0.26453840732574463;0.015526315197348595;-0.962702751159668;0.054605431854724884
26;2.513983964920044;3.1576554775238037;-3.49517560005188;-0.06274301926370686;-0.5440757195228076;-2.994552429721181;-0.27005645632743835;0.010404281318187714;-0.9607697129249573;0.06231263279914856
27;2.3520655632019043;3.2206509113311768;-3.498917579650879;-0.057150388567732704;-0.5416474888913358;-2.9819227371378982;-0.2687597870826721;0.006115742027759552;-0.9606993198394775;0.0691927894949913
28;2.1930060386657715;3.2812623977661133;-3.508603811264038;-0.0436294922306995;-0.3916112281142299;-2.9812193678250334;-0.19559939205646515;0.005747012794017792;-0.977846622467041;0.07432115823030472
29;1.9927198886871338;3.3506956100463867;-3.517821788787842;-0.03061303592752105;-0.2506103182627225;-2.980104309626417;-0.12578056752681732;0.005057374946773052;-0.9889655709266663;0.0781080573797226
30;1.7985663414001465;3.4131994247436523;-3.5248799324035645;-0.022238990665963347;-0.16835595613876528;-2.9791534006969473;-0.08469516038894653;0.004222461953759193;-0.9931888580322266;0.07990630716085434
31;1.6376471519470215;3.462949752807617;-3.5302858352661133;-0.0172876429787878;-0.12313973802672232;-2.97899872647779;-0.06202606484293938;0.003602254670113325;-0.9948146939277649;0.08052044361829758
32;1.400325894355774;3.5342507362365723;-3.5379042625427246;-0.012366652998342137;-0.07919488665968365;-2.979205109700524;-0.03995702788233757;0.0029474524781107903;-0.9959250688552856;0.08079548180103302
33;1.1683533191680908;3.602328062057495;-3.544125556945801;-0.009432379964997788;-0.05254838949918981;-2.978472247258689;-0.026567647233605385;0.0025585901457816362;-0.9963306784629822;0.08131726086139679
34;0.9327850341796875;3.670382022857666;-3.5479938983917236;-0.007563907410766192;-0.03547965525821498;-2.976817711519895;-0.017989786341786385;0.0023087242152541876;-0.9964495897293091;0.0822138860821724
35;0.7489292621612549;3.722960948944092;-3.5485942363739014;-0.006053898459097702;-0.02660548767478582;-2.97488576003898;-0.01350809819996357;0.0019086601678282022;-0.99643874168396;0.0832090899348259
36;0.5425470471382141;3.779494285583496;-3.5468013286590576;0.023434077748510904;-0.019675371145854062;-2.969841106749688;-0.008795700967311859;-0.012516738846898079;-0.9961884021759033;0.08587504923343658
37;0.3043505847454071;3.8363418579101562;-3.5419819355010986;0.1449366105420617;-0.013647076905995733;-2.9542285381221784;-2.770218998193741e-06;-0.07272235304117203;-0.9929324984550476;0.09378926455974579
38;0.08975734561681747;3.8817763328552246;-3.5351078510284424;0.26000290037667195;-0.0016751274813097624;-2.9245315077860035;0.013216204009950161;-0.12896277010440826;-0.9857155084609985;0.1075114980340004
39;-0.11141017079353333;3.917187213897705;-3.5272600650787354;0.3497406489416684;0.009607794631503531;-2.8810760675976588;0.027288641780614853;-0.17189009487628937;-0.9765039682388306;0.12707912921905518
40;-0.31925466656684875;3.9431352615356445;-3.518474578857422;0.418359383369707;0.012214897872513827;-2.821715685640145;0.03896842896938324;-0.20405195653438568;-0.9659008383750916;0.15453094244003296
41;-0.48112764954566956;3.9530861377716064;-3.511082410812378;0.4616613561474156;0.008807181306321108;-2.764658458112414;0.0470743291079998;-0.22392970323562622;-0.9564184546470642;0.18139274418354034
42;-0.628440260887146;3.9528205394744873;-3.5040626525878906;0.4903805026973705;0.0019117680013227092;-2.703841948784251;0.05361194536089897;-0.23674820363521576;-0.9469968676567078;0.21041114628314972
43;-0.7705197930335999;3.942377805709839;-3.496868848800659;0.5108952211337286;-0.007849799584942673;-2.636213026694172;0.05949454754590988;-0.2456018626689911;-0.9365690350532532;0.24285487830638885
44;-0.8797541856765747;3.926278591156006;-3.4909121990203857;0.5228152896960235;-0.016964292212995533;-2.57737159125648;0.06407300382852554;-0.25049659609794617;-0.9271965026855469;0.27102166414260864
45;-1.0099016427993774;3.8961830139160156;-3.483123302459717;0.5332291768150486;-0.028891549896131297;-2.4980265496850915;0.07009539008140564;-0.25432515144348145;-0.9138556718826294;0.3086632788181305
46;-1.1327934265136719;3.8556814193725586;-3.47544002532959;0.5264920897266664;-0.041365720603793066;-2.413158244473831;0.0740148201584816;-0.2502079904079437;-0.9001030921936035;0.3489014506340027
47;-1.2473944425582886;3.814640998840332;-3.4721603393554688;0.40741920124510145;-0.058101167257552995;-2.3346525684230457;0.05323152244091034;-0.19714917242527008;-0.898000180721283;0.389736145734787
48;-1.378135085105896;3.7530462741851807;-3.4653236865997314;0.292937820931387;-0.07226632751716157;-2.236701603123616;0.03161840885877609;-0.14679880440235138;-0.886864960193634;0.436944842338562
49;-1.4874610900878906;3.69122052192688;-3.4576690196990967;0.21589856166909538;-0.07364593651846267;-2.1541096428677116;0.018796797841787338;-0.11215341091156006;-0.8729669451713562;0.47433844208717346
50;-1.5863126516342163;3.6296584606170654;-3.450218677520752;0.16109395003048693;-0.06811834470939515;-2.0869996854851958;0.011132020503282547;-0.08657042682170868;-0.8594906330108643;0.5036443471908569
51;-1.6828478574752808;3.565335988998413;-3.4428257942199707;0.12039859464486881;-0.059534420989641706;-2.0296418156365092;0.006503928452730179;-0.06675845384597778;-0.8465268015861511;0.5281035900115967
52;-1.7776110172271729;3.498884439468384;-3.435664653778076;0.0906967101361885;-0.05046211741879776;-1.9807802446497165;0.0037756599485874176;-0.05171715468168259;-0.8344871997833252;0.5485818386077881
53;-1.871017575263977;3.4308204650878906;-3.428826332092285;0.0689332245959108;-0.04183769029286183;-1.939078781669876;0.0022502224892377853;-0.04023566469550133;-0.8235474228858948;0.5658141374588013
54;-1.9700477123260498;3.356100082397461;-3.4218883514404297;0.05240249600351763;-0.039191126561685205;-1.901334743913837;-0.0007185125723481178;-0.03269926458597183;-0.8130697011947632;0.5812469124794006
55;-2.075985908508301;3.26737380027771;-3.4142796993255615;0.05271575096918999;-0.1337066623285128;-1.871967809447417;-0.03817620128393173;-0.06077556312084198;-0.802061140537262;0.5929137468338013
56;-2.1671011447906494;3.185647487640381;-3.4070286750793457;0.07278986646750624;-0.23858293575858425;-1.8524283705216362;-0.07335853576660156;-0.10033996403217316;-0.7905425429344177;0.5996606349945068
57;-2.257138729095459;3.1021406650543213;-3.3998875617980957;0.09609998230481515;-0.3225002236135416;-1.836275499598014;-0.09861588478088379;-0.13505560159683228;-0.7785773277282715;0.6048571467399597
58;-2.3533377647399902;3.009225606918335;-3.392875909805298;0.11363870889753828;-0.3895250109301587;-1.8211715386024498;-0.11844918131828308;-0.16250663995742798;-0.7669388055801392;0.6093981862068176
59;-2.449512481689453;2.9109954833984375;-3.386741876602173;0.12143092602738657;-0.4387243382472714;-1.8071361700941326;-0.1339755803346634;-0.18093246221542358;-0.7571319937705994;0.61324143409729
60;-2.5390772819519043;2.8133156299591064;-3.381843090057373;0.1233383528371648;-0.4729646458929505;-1.7946410996145936;-0.14541292190551758;-0.19267982244491577;-0.7494533061981201;0.6164814829826355
61;-2.6154963970184326;2.724393844604492;-3.3782708644866943;0.12406680420531946;-0.49540325904620297;-1.7843386649003625;-0.15275965631008148;-0.20039239525794983;-0.7436836957931519;0.6192269325256348
62;-2.716871976852417;2.5977959632873535;-3.374396324157715;0.12446635139201488;-0.5178415894838465;-1.7712198395667502;-0.15982137620449066;-0.20826222002506256;-0.7369654178619385;0.6228691339492798
63;-2.8113396167755127;2.4703328609466553;-3.3716673851013184;0.12474644285007253;-0.5330868000947575;-1.7595854210557302;-0.1642594188451767;-0.21387813985347748;-0.7314852476119995;0.6262621283531189
64;-2.892730236053467;2.3527588844299316;-3.3699965476989746;0.12507547681825418;-0.5429458216227865;-1.7500176831257988;-0.16682371497154236;-0.2177586555480957;-0.7272515892982483;0.629170835018158
65;-2.986043691635132;2.2087814807891846;-3.3688738346099854;0.12555970788144077;-0.5514404466723669;-1.7395492026559172;-0.1686936318874359;-0.2213815301656723;-0.722854733467102;0.6324663162231445
66;-3.0909512042999268;2.034747838973999;-3.3686461448669434;0.12620583212185962;-0.558323596373439;-1.7283657069123968;-0.16979849338531494;-0.22465327382087708;-0.7183839678764343;0.6361004114151001
67;-3.225205659866333;1.792249083518982;-3.369988441467285;0.1271458287689138;-0.5642385757027701;-1.7148527792209167;-0.17015403509140015;-0.22794747352600098;-0.7132273316383362;0.6406202912330627
68;-3.327502965927124;1.5914126634597778;-3.372260332107544;0.12955756363654636;-0.5672406216313731;-1.7050504250836451;-0.16935878992080688;-0.23056091368198395;-0.7094264030456543;0.6441067457199097
69;-3.439356803894043;1.3532941341400146;-3.3762145042419434;0.1420701876865835;-0.5636095916556684;-1.6933759108999842;-0.1626247614622116;-0.23483067750930786;-0.7046524882316589;0.6495171189308167
70;-3.5381534099578857;1.1353343725204468;-3.385124683380127;0.12537505746130445;-0.4543826734643032;-1.6598146756546788;-0.12467621266841888;-0.19676414132118225;-0.7079717516899109;0.6667201519012451
71;-3.6373679637908936;0.9096506834030151;-3.3947036266326904;0.0818478306538844;-0.33245348192690416;-1.6146407025581468;-0.09153750538825989;-0.143460214138031;-0.7072017788887024;0.6862257122993469
72;-3.74595308303833;0.6467707753181458;-3.4040701389312744;0.04799153752475372;-0.2291271032247017;-1.552487590166571;-0.06305688619613647;-0.09824439138174057;-0.693854033946991;0.7105900645256042
73;-3.841073751449585;0.4038703143596649;-3.4115965366363525;0.0317924267919954;-0.16366195107493356;-1.4848381560244361;-0.043581750243902206;-0.07093164324760437;-0.6727675199508667;0.7351552248001099
74;-3.939201831817627;0.12834197282791138;-3.4192140102386475;0.10445349744170132;-0.10297750931782647;-1.393733554942495;0.006992410868406296;-0.07287368178367615;-0.6380332708358765;0.7665207982063293
75;-4.021392345428467;-0.11822164058685303;-3.4245665073394775;0.21334982720258838;-0.048534513027374965;-1.2940548089485424;0.0703832134604454;-0.08341509103775024;-0.597152829170227;0.7946675419807434
76;-4.121171474456787;-0.43574655055999756;-3.4294753074645996;0.3382199839499288;0.00016377174344418528;-1.1441280789161699;0.1415521651506424;-0.09104723483324051;-0.5336575508117676;0.8287840485572815
77;-4.1984052658081055;-0.7056446075439453;-3.4329066276550293;0.4118219212755157;0.015752671793769955;-1.0039140733960978;0.18294142186641693;-0.09161195158958435;-0.47237512469291687;0.8573222756385803
78;-4.267921447753906;-0.980859100818634;-3.43615460395813;0.4653491221257752;0.015154957820495717;-0.8486324167476724;0.21316254138946533;-0.08820752054452896;-0.40218454599380493;0.8860184550285339
79;-4.322176933288574;-1.2304039001464844;-3.4390461444854736;0.49894756294408077;0.005987653123866072;-0.6942773941927651;0.23315279185771942;-0.08126702159643173;-0.330370157957077;0.9109835028648376
80;-4.361445903778076;-1.441607117652893;-3.441493034362793;0.5184394706058159;-0.0056091641520938295;-0.5508026540424547;0.24592891335487366;-0.07231210172176361;-0.26215511560440063;0.9303572773933411
81;-4.393022060394287;-1.6398017406463623;-3.443795919418335;0.530563145083407;-0.018130775282295675;-0.4024683371162976;0.25513121485710144;-0.06097386032342911;-0.19055001437664032;0.9459815621376038
82;-4.421047687530518;-1.8444974422454834;-3.446181058883667;0.5378280875924084;-0.031579140399973636;-0.2313795171067995;0.26211872696876526;-0.0457843616604805;-0.10710253566503525;0.9579805135726929
83;-4.447221279144287;-2.058070421218872;-3.4486892223358154;0.5406984463949347;-0.04519748036630885;-0.027069964284639775;0.26668062806129456;-0.025387782603502274;-0.00700529757887125;0.9634249806404114
84;-4.468807220458984;-2.2299532890319824;-3.4507522583007812;0.540157828519284;-0.05527494975525828;0.16355298423301326;0.26798978447914124;-0.004757272079586983;0.08604251593351364;0.9595600366592407
85;-4.492336273193359;-2.397958517074585;-3.4546215534210205;0.49410847151887033;-0.07284331078010156;0.370909928261676;0.24670645594596863;0.010360803455114365;0.18742859363555908;0.9507361054420471
86;-4.505015850067139;-2.5209662914276123;-3.4615938663482666;0.3463758571088076;-0.11445462022713582;0.5012174643164344;0.1806391477584839;-0.011915288865566254;0.2534322738647461;0.9502629041671753
87;-4.519835948944092;-2.6282670497894287;-3.4671599864959717;0.2430010222022607;-0.11693406044403125;0.6180455954449438;0.13290363550186157;-0.018457558006048203;0.30811676383018494;0.9418386220932007
88;-4.542336940765381;-2.769517660140991;-3.474252462387085;0.14546992055897653;-0.12167023549447227;0.7536345565528068;0.08975940197706223;-0.02969188801944256;0.37041935324668884;0.924040675163269
89;-4.5588531494140625;-2.873868703842163;-3.4793128967285156;0.1005997567699174;-0.18499526304761357;0.8351989341139784;0.0831746906042099;-0.06401734799146652;0.4075678288936615;0.9071230292320251
90;-4.575965404510498;-2.9794020652770996;-3.48337721824646;0.10009772524329623;-0.3286831208940965;0.9054504090737242;0.11585508286952972;-0.12534868717193604;0.43834400177001953;0.882451057434082
91;-4.589115142822266;-3.0548195838928223;-3.4872941970825195;0.10659990706899738;-0.4040048610579017;0.9520829191706695;0.13820025324821472;-0.15415368974208832;0.4578089714050293;0.864608883857727
92;-4.601190567016602;-3.1298303604125977;-3.492737054824829;0.11260342567374201;-0.4612716934803503;0.9975497202928623;0.157283753156662;-0.17422345280647278;0.47624242305755615;0.8474084734916687
93;-4.60737419128418;-3.1822400093078613;-3.4971792697906494;0.11648070539057918;-0.49693726227371693;1.034899095779151;0.17047536373138428;-0.1854536384344101;0.49110153317451477;0.833885133266449
94;-4.6081624031066895;-3.2163476943969727;-3.5004196166992188;0.11841819111232074;-0.5221410521996891;1.0721454809437059;0.18075434863567352;-0.19231802225112915;0.5057224631309509;0.8213322162628174
95;-4.6027374267578125;-3.230579376220703;-3.502434730529785;0.11873150271988785;-0.541706612321177;1.114700072376811;0.1897864043712616;-0.19642376899719238;0.5222295522689819;0.807883083820343
96;-4.591214656829834;-3.218167543411255;-3.5026936531066895;0.11770325067418479;-0.5550595305477575;1.1587163547989052;0.19707728922367096;-0.19790437817573547;0.5391110777854919;0.7945776581764221
97;-4.573615550994873;-3.1761224269866943;-3.5012459754943848;0.11543892892748384;-0.5646977896858861;1.2082169430203404;0.20359350740909576;-0.19744792580604553;0.5578559637069702;0.7799748778343201
