id;marker1_x[m];marker1_y[m];marker1_z[m];marker2_x[m];marker2_y[m];marker2_z[m];marker3_x[m];marker3_y[m];marker3_z[m];marker4_x[m];marker4_y[m];marker4_z[m]
0;-0.31358247995376587;-3.8806979656219482;-4.389935493469238;-0.35360607504844666;-3.9663689136505127;-4.450422763824463;-0.3773857653141022;-3.8932511806488037;-4.413447380065918;-0.27459192276000977;-3.9401543140411377;-4.415033340454102
1;-0.20381076633930206;-3.82985520362854;-4.395530700683594;-0.2435792088508606;-3.91560959815979;-4.4560675621032715;-0.26764073967933655;-3.842737913131714;-4.418790340423584;-0.16456931829452515;-3.8890042304992676;-4.420961856842041
2;-0.07388284057378769;-3.7631874084472656;-4.402602195739746;-0.11338586360216141;-3.8490328788757324;-4.463183879852295;-0.13774247467517853;-3.7764289379119873;-4.425577163696289;-0.03437817841768265;-3.8220014572143555;-4.428400039672852
3;0.06848568469285965;-3.682419538497925;-4.410837650299072;0.029237492009997368;-3.7683565616607666;-4.471455097198486;0.004606442525982857;-3.6959943771362305;-4.433562278747559;0.10823281854391098;-3.7409286499023438;-4.436954975128174
4;0.21462541818618774;-3.591569662094116;-4.419772148132324;0.17560824751853943;-3.677593231201172;-4.480416297912598;0.15072917938232422;-3.605454444885254;-4.4422607421875;0.2545914649963379;-3.6497962474823;-4.4461846351623535
5;0.33604666590690613;-3.510284423828125;-4.427542209625244;0.2972027659416199;-3.596374988555908;-4.488202095031738;0.27213358879089355;-3.524419069290161;-4.449826240539551;0.37618163228034973;-3.5682804584503174;-4.454204082489014
6;0.479033499956131;-3.408142328262329;-4.437073707580566;0.4403761923313141;-3.4943065643310547;-4.497747898101807;0.4151003956794739;-3.4225594997406006;-4.459117889404297;0.5193526148796082;-3.465876579284668;-4.464024066925049
7;0.6348270773887634;-3.2892820835113525;-4.447906017303467;0.596357524394989;-3.3755221366882324;-4.508592128753662;0.5708654522895813;-3.3040177822113037;-4.4696550369262695;0.675341010093689;-3.346714735031128;-4.475207328796387
8;0.7837971448898315;-3.1683907508850098;-4.458675861358643;0.7455235719680786;-3.2547335624694824;-4.5193400382995605;0.7197744846343994;-3.183584213256836;-4.47992467880249;0.8245505094528198;-3.2253847122192383;-4.486534118652344
9;0.9051821827888489;-3.0638701915740967;-4.47115421295166;0.8661410212516785;-3.153968095779419;-4.525543689727783;0.8407863974571228;-3.080738067626953;-4.489859580993652;0.9457032680511475;-3.1221745014190674;-4.4965291023254395
10;1.0687763690948486;-2.916295051574707;-4.490683555603027;1.029400110244751;-3.012848138809204;-4.532242298126221;1.0040901899337769;-2.9360318183898926;-4.505085468292236;1.1093429327011108;-2.9768636226654053;-4.509946823120117
11;1.2226994037628174;-2.772425413131714;-4.50862979888916;1.1851550340652466;-2.8735551834106445;-4.539666175842285;1.1583197116851807;-2.7950408458709717;-4.519813060760498;1.2644933462142944;-2.8336257934570312;-4.522522926330566
12;1.3665440082550049;-2.63450026512146;-4.524357318878174;1.3324775695800781;-2.7387726306915283;-4.548166275024414;1.302954077720642;-2.660093069076538;-4.533444881439209;1.4104288816452026;-2.694981336593628;-4.534428596496582
13;1.5207968950271606;-2.483336925506592;-4.540382385253906;1.4920759201049805;-2.590362548828125;-4.558291912078857;1.4585856199264526;-2.5126044750213623;-4.547759532928467;1.5677056312561035;-2.541958808898926;-4.547335147857666
14;1.6648497581481934;-2.3396308422088623;-4.554548740386963;1.642447590827942;-2.4487600326538086;-4.568297863006592;1.60446035861969;-2.3727481365203857;-4.5606818199157715;1.715111255645752;-2.3956313133239746;-4.559345722198486
15;1.8398091793060303;-2.1624908447265625;-4.57069730758667;1.826596975326538;-2.2735116481781006;-4.580691337585449;1.7823983430862427;-2.2007129192352295;-4.575629711151123;1.894567847251892;-2.2142410278320312;-4.573637008666992
16;2.0353198051452637;-1.9620602130889893;-4.587301731109619;2.0340633392333984;-2.0740835666656494;-4.59432315826416;1.9823311567306519;-2.0063133239746094;-4.591188430786133;2.0952987670898438;-2.007725238800049;-4.588881492614746
17;2.21014404296875;-1.7813252210617065;-4.600825786590576;2.2207906246185303;-1.8929537534713745;-4.605903148651123;2.162153720855713;-1.8310168981552124;-4.603810787200928;2.2746336460113525;-1.8203822374343872;-4.601767063140869
18;2.436119318008423;-1.5465145111083984;-4.616472244262695;2.463282346725464;-1.655378818511963;-4.619761943817139;2.3960697650909424;-1.6028480529785156;-4.618427276611328;2.5057098865509033;-1.5755326747894287;-4.617058277130127
19;2.6312918663024902;-1.3435587882995605;-4.628584384918213;2.6724138259887695;-1.44797945022583;-4.630904674530029;2.5989272594451904;-1.4046499729156494;-4.629868030548096;2.704071283340454;-1.3632599115371704;-4.6291069984436035
20;2.8688888549804688;-1.0977063179016113;-4.643377304077148;2.923079252243042;-1.1959961652755737;-4.644981861114502;2.844637393951416;-1.1624568700790405;-4.644069194793701;2.9435949325561523;-1.1079002618789673;-4.6439642906188965
21;3.0969185829162598;-0.8619773387908936;-4.655646800994873;3.1600232124328613;-0.9546168446540833;-4.661629676818848;3.078831672668457;-0.9286790490150452;-4.657885551452637;3.1722121238708496;-0.8650474548339844;-4.658229351043701
22;3.324406385421753;-0.6245530843734741;-4.6620707511901855;3.392821788787842;-0.7105137705802917;-4.685096263885498;3.310612440109253;-0.6915052533149719;-4.672481060028076;3.3993356227874756;-0.62157142162323;-4.669941425323486
23;3.5483033657073975;-0.3809720277786255;-4.675454139709473;3.6211180686950684;-0.46190592646598816;-4.702800273895264;3.537997245788574;-0.44785070419311523;-4.689676761627197;3.623009204864502;-0.37373772263526917;-4.6826605796813965
24;3.7463788986206055;-0.15028823912143707;-4.693684101104736;3.8238723278045654;-0.2294301688671112;-4.711888790130615;3.7396817207336426;-0.21839341521263123;-4.703587532043457;3.8209636211395264;-0.14009426534175873;-4.6979804039001465
25;3.9305737018585205;0.07585688680410385;-4.707521915435791;4.01154088973999;-0.0008883738191798329;-4.719954490661621;3.9267754554748535;0.007179646287113428;-4.714611530303955;4.004815101623535;0.08877809345722198;-4.710079669952393
26;4.140288829803467;0.3437749147415161;-4.719641208648682;4.224562168121338;0.2700625956058502;-4.727677822113037;4.139437675476074;0.2748035788536072;-4.724486827850342;4.213985919952393;0.359652042388916;-4.720991611480713
27;4.356654167175293;0.62852543592453;-4.7281317710876465;4.443843841552734;0.5580156445503235;-4.733271598815918;4.358560562133789;0.5594834089279175;-4.731420516967773;4.429690837860107;0.6472473740577698;-4.728776454925537
28;4.533815383911133;0.8660929203033447;-4.732069969177246;4.623117446899414;0.7981789708137512;-4.735663414001465;4.537816524505615;0.7971046566963196;-4.734491348266602;4.606260776519775;0.8869927525520325;-4.732380390167236
29;4.709921836853027;1.1050379276275635;-4.733292579650879;4.801131248474121;1.0396596193313599;-4.735849380493164;4.715889930725098;1.0361733436584473;-4.735110759735107;4.781745910644531;1.1279830932617188;-4.73340368270874
30;4.922024250030518;1.3954598903656006;-4.7311859130859375;5.01532506942749;1.3330739736557007;-4.732935905456543;4.930239677429199;1.3268160820007324;-4.732515811920166;4.993063449859619;1.420732855796814;-4.731163024902344
31;5.124032974243164;1.6739662885665894;-4.7255353927612305;5.219151973724365;1.6143773794174194;-4.726806640625;5.1342902183532715;1.6055924892425537;-4.726564407348633;5.194288730621338;1.7013416290283203;-4.725446701049805
32;5.297923564910889;1.9147939682006836;-4.717782974243164;5.394493103027344;1.857582926750183;-4.718895435333252;5.30987548828125;1.846693992614746;-4.7186737060546875;5.3674774169921875;1.9439055919647217;-4.717716693878174
33;5.479893684387207;2.168456792831421;-4.703253269195557;5.577470779418945;2.1138806343078613;-4.713268756866455;5.493454456329346;2.100726366043091;-4.706406593322754;5.548462390899658;2.199415922164917;-4.708261013031006
34;5.65079927444458;2.409466028213501;-4.686250686645508;5.746956825256348;2.357490062713623;-4.711791515350342;5.665287971496582;2.3421406745910645;-4.692466735839844;5.717073917388916;2.442201852798462;-4.7011260986328125
35;5.841544151306152;2.6891777515411377;-4.6700758934021;5.934841156005859;2.639815092086792;-4.708273410797119;5.856703281402588;2.6222856044769287;-4.678844928741455;5.90457820892334;2.7236692905426025;-4.692929744720459
36;6.003683567047119;2.944124937057495;-4.6588664054870605;6.095003604888916;2.896604537963867;-4.703615665435791;6.019878387451172;2.8775203227996826;-4.667966365814209;6.063817501068115;2.979874610900879;-4.686992168426514
37;6.166207313537598;3.224372386932373;-4.650628089904785;6.257453918457031;3.178311347961426;-4.697022914886475;6.184885025024414;3.158099412918091;-4.656972408294678;6.223417282104492;3.2609996795654297;-4.683349609375
38;6.3109588623046875;3.5022544860839844;-4.645267963409424;6.40351676940918;3.457550048828125;-4.690374374389648;6.33258056640625;3.4366259574890137;-4.647841930389404;6.365907669067383;3.539309501647949;-4.681223392486572
39;6.410478591918945;3.7136712074279785;-4.642503261566162;6.504426956176758;3.6700854301452637;-4.685794353485107;6.434243202209473;3.6487374305725098;-4.642235279083252;6.464157581329346;3.7508909702301025;-4.680166721343994
40;6.523293495178223;3.9809141159057617;-4.640041828155518;6.618875503540039;3.9387547969818115;-4.681110382080078;6.549314975738525;3.916933536529541;-4.636793613433838;6.575780868530273;4.018266677856445;-4.6792216300964355
41;6.61209774017334;4.2356696128845215;-4.637452125549316;6.7092204093933105;4.195061683654785;-4.676415920257568;6.640069961547852;4.172693252563477;-4.6317315101623535;6.663666725158691;4.273203372955322;-4.677664756774902
42;6.666379451751709;4.450868606567383;-4.63341760635376;6.7647929191589355;4.412042140960693;-4.670931816101074;6.6960344314575195;4.3888373374938965;-4.62606954574585;6.717123031616211;4.48884916305542;-4.67425537109375
43;6.695387363433838;4.639202117919922;-4.628222465515137;6.795013904571533;4.602504730224609;-4.664663791656494;6.7266716957092285;4.578115940093994;-4.61979341506958;6.745300769805908;4.677931785583496;-4.669379711151123
44;6.705781936645508;4.839504718780518;-4.625285625457764;6.80943489074707;4.80772066116333;-4.654370307922363;6.7371416091918945;4.778097629547119;-4.620091915130615;6.759082317352295;4.882843494415283;-4.656367301940918
45;6.698113441467285;5.008260250091553;-4.622069835662842;6.804960250854492;4.980892658233643;-4.6429219245910645;6.730275630950928;4.947113513946533;-4.619257926940918;6.753244876861572;5.055109977722168;-4.643302917480469
46;6.679300785064697;5.159887790679932;-4.616059303283691;6.788008689880371;5.136142253875732;-4.6308512687683105;6.71276330947876;5.099396705627441;-4.614523410797119;6.734540939331055;5.209107398986816;-4.6305928230285645
47;6.6509904861450195;5.313141345977783;-4.6064839363098145;6.760935306549072;5.2929558753967285;-4.616718292236328;6.686061859130859;5.25355339050293;-4.605752944946289;6.705442905426025;5.364391803741455;-4.616157531738281
48;6.618495941162109;5.454524517059326;-4.594454288482666;6.7292399406433105;5.4376702308654785;-4.601649761199951;6.655213356018066;5.395933151245117;-4.594104290008545;6.671740531921387;5.507501125335693;-4.601066589355469
49;6.576935291290283;5.615002155303955;-4.57841682434082;6.688317775726318;5.601972579956055;-4.583349704742432;6.615639686584473;5.557715892791748;-4.577176570892334;6.628442287445068;5.669774532318115;-4.584102153778076
50;6.53741455078125;5.757864952087402;-4.563868999481201;6.649144649505615;5.7478837966918945;-4.567959308624268;6.577983379364014;5.7024993896484375;-4.555502414703369;6.587071418762207;5.81305456161499;-4.577040195465088
51;6.492323398590088;5.908921241760254;-4.548739910125732;6.604311943054199;5.901910781860352;-4.551826477050781;6.53457498550415;5.8564581871032715;-4.533130645751953;6.5402655601501465;5.9633307456970215;-4.569390773773193
52;6.445744514465332;6.049082279205322;-4.535058498382568;6.557908058166504;6.044900894165039;-4.5364603996276855;6.489181995391846;5.999353408813477;-4.514529705047607;6.492470741271973;6.102781772613525;-4.559925556182861
53;6.396078586578369;6.181519508361816;-4.522317886352539;6.508314609527588;6.179793357849121;-4.5222086906433105;6.4402995109558105;6.1317338943481445;-4.503687858581543;6.441964149475098;6.23740291595459;-4.5436930656433105
54;6.354753494262695;6.280668258666992;-4.512327671051025;6.467000961303711;6.2801103591918945;-4.512002944946289;6.399460792541504;6.229745388031006;-4.498569011688232;6.400088310241699;6.338869571685791;-4.527902126312256
55;6.306924343109131;6.386496067047119;-4.5014328956604;6.419173240661621;6.38689661026001;-4.501072406768799;6.352079391479492;6.334969997406006;-4.492083549499512;6.351744651794434;6.446219444274902;-4.511896133422852
56;6.259183406829834;6.485618591308594;-4.491042137145996;6.371428489685059;6.4866485595703125;-4.4912800788879395;6.304672718048096;6.433907985687256;-4.484883785247803;6.303615093231201;6.546098709106445;-4.498344421386719
57;6.221619606018066;6.559529781341553;-4.477901458740234;6.33323335647583;6.559747219085693;-4.4898362159729;6.266988277435303;6.507348537445068;-4.477801322937012;6.265645503997803;6.619850158691406;-4.488315105438232
58;6.175482273101807;6.643923282623291;-4.461724758148193;6.284142971038818;6.643198013305664;-4.48987340927124;6.219479084014893;6.591221809387207;-4.469974040985107;6.218540668487549;6.704029560089111;-4.47650671005249
59;6.125757694244385;6.722040176391602;-4.449347972869873;6.231016159057617;6.721004962921143;-4.488331317901611;6.168022155761719;6.669148921966553;-4.463399410247803;6.167876243591309;6.782098293304443;-4.466793060302734
60;6.056710243225098;6.811196804046631;-4.438338279724121;6.158609867095947;6.810143947601318;-4.485406398773193;6.097217082977295;6.758277416229248;-4.456777095794678;6.097957134246826;6.871271133422852;-4.457703113555908
61;5.980917453765869;6.891900062561035;-4.430821895599365;6.080536365509033;6.890928268432617;-4.4825439453125;6.020158767700195;6.839015960693359;-4.451910018920898;6.0216546058654785;6.952003479003906;-4.451149940490723
62;5.896205902099609;6.968842506408691;-4.425512790679932;5.994256496429443;6.96796989440918;-4.480151653289795;5.934377193450928;6.916018486022949;-4.448617935180664;5.936822891235352;7.028963088989258;-4.446033477783203
63;5.792923450469971;7.050663471221924;-4.421620845794678;5.889810085296631;7.049891948699951;-4.478299617767334;5.8300933837890625;6.997923851013184;-4.4464850425720215;5.833689212799072;7.110772609710693;-4.441873550415039
64;5.662055969238281;7.142342567443848;-4.419175148010254;5.7580790519714355;7.141661167144775;-4.477305889129639;5.698302268981934;7.089709281921387;-4.44558048248291;5.7031426429748535;7.202408313751221;-4.438905715942383
65;5.512780666351318;7.23655366897583;-4.418533802032471;5.608238220214844;7.235933780670166;-4.477588176727295;5.548170566558838;7.184045314788818;-4.446311950683594;5.554365158081055;7.296529293060303;-4.437479496002197
66;5.3689093589782715;7.320572376251221;-4.419374465942383;5.464041233062744;7.319982528686523;-4.4789533615112305;5.4035749435424805;7.268192768096924;-4.448287010192871;5.411047458648682;7.380424499511719;-4.437464714050293
67;5.226956844329834;7.3986124992370605;-4.424982070922852;5.325899600982666;7.397036075592041;-4.47797155380249;5.263147354125977;7.345828533172607;-4.451160907745361;5.270625591278076;7.458078861236572;-4.440536975860596
68;5.046628475189209;7.493294715881348;-4.4366655349731445;5.152375221252441;7.490161418914795;-4.474186420440674;5.086358070373535;7.439700126647949;-4.454842567443848;5.092090129852295;7.5523529052734375;-4.448094844818115
69;4.866738319396973;7.585031509399414;-4.446702480316162;4.975944995880127;7.581357479095459;-4.472403526306152;4.908259868621826;7.531148910522461;-4.459109306335449;4.913121223449707;7.643953800201416;-4.4545817375183105
70;4.650451183319092;7.692190170288086;-4.456078052520752;4.761463165283203;7.689874649047852;-4.472541809082031;4.693648338317871;7.638797283172607;-4.464108943939209;4.696460247039795;7.751720905303955;-4.461029052734375
71;4.448822975158691;7.789360046386719;-4.463352680206299;4.560539245605469;7.791049003601074;-4.474153518676758;4.494293212890625;7.737553596496582;-4.468811988830566;4.4928202629089355;7.850518226623535;-4.466380596160889
72;4.254642009735107;7.881002426147461;-4.469603061676025;4.366374969482422;7.889008045196533;-4.476792812347412;4.303130626678467;7.831849098205566;-4.473350524902344;4.295175552368164;7.944553852081299;-4.4714884757995605
73;4.02791690826416;7.985997200012207;-4.476081848144531;4.138628005981445;8.003974914550781;-4.480539798736572;4.0807342529296875;7.9413886070251465;-4.477365493774414;4.062580108642578;8.052915573120117;-4.47844934463501
74;3.7905211448669434;8.092619895935059;-4.481884956359863;3.898413896560669;8.12345027923584;-4.484830379486084;3.8482487201690674;8.054974555969238;-4.4762654304504395;3.817094087600708;8.162604331970215;-4.490901947021484
75;3.5655500888824463;8.18746566772461;-4.485815525054932;3.66845703125;8.232189178466797;-4.488993167877197;3.627319574356079;8.159198760986328;-4.472902297973633;3.583163261413574;8.258630752563477;-4.503438472747803
76;3.346188545227051;8.269759178161621;-4.487978458404541;3.441436290740967;8.328919410705566;-4.493261337280273;3.410930633544922;8.252425193786621;-4.470972061157227;3.3537673950195312;8.340781211853027;-4.512135028839111
77;3.1644482612609863;8.327241897583008;-4.4888153076171875;3.250676155090332;8.39867877960205;-4.496670246124268;3.230715036392212;8.31998348236084;-4.470449447631836;3.162487506866455;8.397247314453125;-4.516757488250732
78;2.980991840362549;8.375932693481445;-4.490077972412109;3.055966377258301;8.45880126953125;-4.500650405883789;3.049267530441284;8.376509666442871;-4.479153633117676;2.9670052528381348;8.446772575378418;-4.511789321899414
79;2.811528205871582;8.415424346923828;-4.493231773376465;2.875981569290161;8.506725311279297;-4.503714084625244;2.8799819946289062;8.423115730285645;-4.4872145652771;2.7882585525512695;8.485342025756836;-4.50921106338501
80;2.6097636222839355;8.457667350769043;-4.498600959777832;2.6633262634277344;8.555919647216797;-4.507408618927002;2.6772303581237793;8.472551345825195;-4.49578332901001;2.578233480453491;8.525294303894043;-4.5094475746154785
81;2.4706125259399414;8.484463691711426;-4.502152919769287;2.5179781913757324;8.585832595825195;-4.511148452758789;2.5371432304382324;8.503284454345703;-4.501291275024414;2.434814214706421;8.550244331359863;-4.5109076499938965
82;2.3229362964630127;8.510883331298828;-4.501753807067871;2.3648552894592285;8.61339282989502;-4.52004861831665;2.388434648513794;8.532510757446289;-4.50659704208374;2.28362774848938;8.57441234588623;-4.511958599090576
83;2.1574723720550537;8.536989212036133;-4.499843120574951;2.19347882270813;8.638213157653809;-4.53236198425293;2.2213809490203857;8.560003280639648;-4.512779235839844;2.114894151687622;8.597811698913574;-4.512994766235352
84;1.9807968139648438;8.557171821594238;-4.501310348510742;2.0112369060516357;8.656659126281738;-4.543449401855469;2.0429229736328125;8.5809326171875;-4.520205020904541;1.9354697465896606;8.61563491821289;-4.515897274017334
85;1.781333565711975;8.567580223083496;-4.5060296058654785;1.8067787885665894;8.6654052734375;-4.5548415184021;1.841772437095642;8.591968536376953;-4.5291290283203125;1.7336409091949463;8.623886108398438;-4.521528720855713
86;1.575154185295105;8.563241004943848;-4.513272762298584;1.5967196226119995;8.659835815429688;-4.566231727600098;1.6342841386795044;8.58825969696045;-4.538943767547607;1.525622010231018;8.617758750915527;-4.5293869972229
