id;marker1_x[m];marker1_y[m];marker1_z[m];marker2_x[m];marker2_y[m];marker2_z[m];marker3_x[m];marker3_y[m];marker3_z[m];marker4_x[m];marker4_y[m];marker4_z[m]
0;3.6770479679107666;0.16220885515213013;-3.4817779064178467;3.7373178005218506;0.06752914190292358;-3.4836134910583496;3.6569347381591797;0.09605226665735245;-3.4816572666168213;3.752230644226074;0.15675023198127747;-3.4835009574890137
1;3.6753273010253906;0.3164789378643036;-3.4890084266662598;3.735734224319458;0.22188717126846313;-3.4908719062805176;3.6553096771240234;0.2502933144569397;-3.488922119140625;3.750518321990967;0.311129629611969;-3.490715503692627
2;3.6730003356933594;0.46173208951950073;-3.4944820404052734;3.733553409576416;0.3672340214252472;-3.4963645935058594;3.6530849933624268;0.39551571011543274;-3.494419574737549;3.7482001781463623;0.4564991295337677;-3.49617862701416
3;3.6684460639953613;0.670650839805603;-3.4999842643737793;3.7292449474334717;0.5763113498687744;-3.5018858909606934;3.64870285987854;0.6043828129768372;-3.4999454021453857;3.743659257888794;0.6656142473220825;-3.5016701221466064
4;3.6636135578155518;0.843351423740387;-3.5024187564849854;3.72464656829834;0.7491635084152222;-3.504331350326538;3.6440346240997314;0.77703458070755;-3.5023930072784424;3.7388389110565186;0.8385018110275269;-3.504098653793335
5;3.6574742794036865;1.0252426862716675;-3.5029611587524414;3.718813419342041;0.9312522411346436;-3.5047993659973145;3.638111114501953;0.9588626027107239;-3.502883195877075;3.732715368270874;1.0206364393234253;-3.504636764526367
6;3.65043568611145;1.1979435682296753;-3.501652956008911;3.712355375289917;1.1043282747268677;-3.5031497478485107;3.6314961910247803;1.1314462423324585;-3.5008528232574463;3.725689649581909;1.193796157836914;-3.50386643409729
7;3.6401946544647217;1.397092580795288;-3.4982051849365234;3.7037465572357178;1.3045669794082642;-3.498668670654297;3.622452974319458;1.3303017616271973;-3.495866060256958;3.7154769897460938;1.3942234516143799;-3.501300573348999
8;3.6264970302581787;1.593487024307251;-3.4943034648895264;3.693190813064575;1.5032529830932617;-3.49117112159729;3.611318349838257;1.5265908241271973;-3.4855990409851074;3.7015368938446045;1.5927166938781738;-3.501631498336792
9;3.6060686111450195;1.7912920713424683;-3.4909372329711914;3.6784586906433105;1.706105351448059;-3.480790376663208;3.5958776473999023;1.7256028652191162;-3.47190260887146;3.6802761554718018;1.7934861183166504;-3.5041165351867676
10;3.582819938659668;1.9446995258331299;-3.4868452548980713;3.66123104095459;1.8655905723571777;-3.472931385040283;3.5779314041137695;1.8803850412368774;-3.4619252681732178;3.6561119556427;1.9505535364151;-3.503556728363037
11;3.5563669204711914;2.0711193084716797;-3.482045888900757;3.640698194503784;1.998649001121521;-3.46667218208313;3.556889533996582;2.008028745651245;-3.453751564025879;3.6285314559936523;2.0812911987304688;-3.5013864040374756
12;3.5202767848968506;2.1972603797912598;-3.475637197494507;3.611438512802124;2.133617877960205;-3.460171699523926;3.5274930000305176;2.1356542110443115;-3.4450783729553223;3.59062123298645;2.213338851928711;-3.4975080490112305
13;3.4825239181518555;2.294419288635254;-3.4691460132598877;3.5796611309051514;2.240103006362915;-3.4545116424560547;3.4962453842163086;2.234485626220703;-3.437509059906006;3.5505282878875732;2.3166182041168213;-3.492976188659668
14;3.428276300430298;2.399160385131836;-3.4591548442840576;3.531961679458618;2.3572640419006348;-3.4494552612304688;3.450181245803833;2.338676929473877;-3.4337942600250244;3.4925005435943604;2.4327094554901123;-3.4800102710723877
15;3.3709356784820557;2.4858155250549316;-3.4488461017608643;3.4789974689483643;2.4556121826171875;-3.4456112384796143;3.400285005569458;2.425299882888794;-3.4327926635742188;3.4303572177886963;2.5294909477233887;-3.4645543098449707
16;3.3126513957977295;2.5624237060546875;-3.4414544105529785;3.4231185913085938;2.542504072189331;-3.4409196376800537;3.3477413654327393;2.503708839416504;-3.431328773498535;3.3675332069396973;2.6128973960876465;-3.4526617527008057
17;3.267263174057007;2.617222785949707;-3.4371941089630127;3.3787267208099365;2.603959083557129;-3.437302589416504;3.3058106899261475;2.5602734088897705;-3.4299778938293457;3.3190200328826904;2.671405553817749;-3.445603370666504
18;3.213388204574585;2.678678035736084;-3.4312069416046143;3.325317859649658;2.6714437007904053;-3.435624361038208;3.2550857067108154;2.623612642288208;-3.4279820919036865;3.261918067932129;2.7358920574188232;-3.438735008239746
19;3.1524133682250977;2.744356632232666;-3.418405294418335;3.2621846199035645;2.7415411472320557;-3.441694498062134;3.1954424381256104;2.690765619277954;-3.426004648208618;3.197545289993286;2.8036842346191406;-3.429743766784668
20;3.0855958461761475;2.80877423286438;-3.4089808464050293;3.191392421722412;2.810215950012207;-3.446465492248535;3.1282927989959717;2.7568674087524414;-3.425224542617798;3.127681255340576;2.869835138320923;-3.4226062297821045
21;3.0262551307678223;2.858919620513916;-3.404611349105835;3.1292409896850586;2.8632867336273193;-3.449052095413208;3.06856632232666;2.808253765106201;-3.4252023696899414;3.066359758377075;2.921074151992798;-3.41922926902771
22;2.9493467807769775;2.916045665740967;-3.40193510055542;3.0497703552246094;2.923161029815674;-3.4515786170959473;2.9916141033172607;2.8665497303009033;-3.4252769947052;2.9872915744781494;2.9792239665985107;-3.4178719520568848
23;2.8541836738586426;2.9776296615600586;-3.4009971618652344;2.9525392055511475;2.987096071243286;-3.454257011413574;2.8967223167419434;2.9291372299194336;-3.425901412963867;2.890031099319458;3.041679620742798;-3.4182546138763428
24;2.748476505279541;3.0372653007507324;-3.4014110565185547;2.8453564643859863;3.0485777854919434;-3.4569664001464844;2.7914907932281494;2.9895741939544678;-3.427035093307495;2.7825024127960205;3.101984739303589;-3.4198195934295654
25;2.640296459197998;3.0911800861358643;-3.402618646621704;2.73616623878479;3.1039037704467773;-3.4596023559570312;2.6838183403015137;3.044119119644165;-3.42854905128479;2.672865867614746;3.156390905380249;-3.4219064712524414
26;2.5037014484405518;3.1515846252441406;-3.404789924621582;2.5987069606781006;3.165656089782715;-3.4628939628601074;2.5477793216705322;3.10514497756958;-3.4308998584747314;2.534884214401245;3.21724271774292;-3.424837589263916
27;2.341592311859131;3.214813232421875;-3.408538341522217;2.436551332473755;3.23010516166687;-3.4664089679718018;2.386467456817627;3.168950080871582;-3.434307813644409;2.3718161582946777;3.2808597087860107;-3.428776979446411
28;2.169189453125;3.2742397785186768;-3.4208791255950928;2.2716102600097656;3.2908074855804443;-3.4637227058410645;2.217761754989624;3.2289650440216064;-3.440171241760254;2.2015914916992188;3.3407092094421387;-3.4356157779693604
29;1.9568430185317993;3.3426263332366943;-3.4343960285186768;2.064171552658081;3.3601107597351074;-3.462233543395996;2.0079140663146973;3.297778844833374;-3.447112560272217;1.9906002283096313;3.4093942642211914;-3.4437618255615234
30;1.7559610605239868;3.404600143432617;-3.4447364807128906;1.8651671409606934;3.422497272491455;-3.463545560836792;1.8080363273620605;3.3599472045898438;-3.45342755317688;1.790181279182434;3.4715001583099365;-3.4509506225585938
31;1.5914556980133057;3.454115629196167;-3.4521806240081787;1.7013863325119019;3.472148895263672;-3.465968132019043;1.6439132690429688;3.40952730178833;-3.458608627319336;1.6258604526519775;3.5210587978363037;-3.456670045852661
32;1.3507344722747803;3.5252273082733154;-3.461934804916382;1.4611605405807495;3.543318510055542;-3.4708149433135986;1.4034398794174194;3.480666160583496;-3.466141939163208;1.3852812051773071;3.592188596725464;-3.4647490978240967
33;1.1167550086975098;3.5931499004364014;-3.4695234298706055;1.2273619174957275;3.611353874206543;-3.475419282913208;1.1695961952209473;3.548642873764038;-3.472381591796875;1.1513011455535889;3.660146713256836;-3.4713170528411865
34;0.8799313902854919;3.6610429286956787;-3.4742958545684814;0.9905913472175598;3.679443836212158;-3.4782774448394775;0.9328913688659668;3.6166300773620605;-3.4762890338897705;0.9143863320350647;3.7281014919281006;-3.4754347801208496
35;0.6954330205917358;3.7135188579559326;-3.475374698638916;0.8060877323150635;3.7321386337280273;-3.478360891342163;0.7484965920448303;3.66921067237854;-3.4768896102905273;0.7297641634941101;3.7806451320648193;-3.476205587387085
36;0.48823854327201843;3.771780014038086;-3.4739785194396973;0.5988156199455261;3.7909610271453857;-3.476186752319336;0.5415619015693665;3.7277603149414062;-3.4736337661743164;0.522203266620636;3.8390581607818604;-3.47628116607666
37;0.24811182916164398;3.8362269401550293;-3.4702234268188477;0.3583870530128479;3.857133626937866;-3.471755266189575;0.30209845304489136;3.7935872077941895;-3.4632556438446045;0.28105178475379944;3.9034042358398438;-3.4795749187469482
38;0.030968299135565758;3.887700319290161;-3.4656753540039062;0.14058420062065125;3.911874532699585;-3.4658632278442383;0.08586077392101288;3.847851514816284;-3.452254056930542;0.062295448035001755;3.9544804096221924;-3.481304168701172
39;-0.17271806299686432;3.9262876510620117;-3.460397243499756;-0.06426071375608444;3.955199718475342;-3.4593188762664795;-0.11670126765966415;3.890176296234131;-3.441976308822632;-0.1436862349510193;3.992849349975586;-3.480694532394409
40;-0.38257354497909546;3.9528677463531494;-3.4536046981811523;-0.2760254144668579;3.988162040710449;-3.4522335529327393;-0.3250218629837036;3.921396017074585;-3.431727886199951;-0.35695791244506836;4.019589424133301;-3.4776320457458496
41;-0.545716404914856;3.9618911743164062;-3.4473414421081543;-0.4413506090641022;4.003205299377441;-3.446352958679199;-0.48676779866218567;3.93467378616333;-3.423560619354248;-0.5235936045646667;4.028904438018799;-3.473893165588379
42;-0.6938201189041138;3.9595298767089844;-3.440875768661499;-0.5921546220779419;4.007113456726074;-3.4406611919403076;-0.6334739327430725;3.9366395473480225;-3.4160642623901367;-0.67563796043396;4.026966571807861;-3.469283103942871
43;-0.8362915515899658;3.9460809230804443;-3.4338412284851074;-0.7380768656730652;4.000423908233643;-3.4347221851348877;-0.7745702266693115;3.9278926849365234;-3.408524990081787;-0.82267165184021;4.0139312744140625;-3.463775634765625
44;-0.9455462694168091;3.9270403385162354;-3.4278013706207275;-0.8507078886032104;3.987058401107788;-3.4297056198120117;-0.8828262090682983;3.9129021167755127;-3.4023542404174805;-0.9359905123710632;3.9951205253601074;-3.4587695598602295
45;-1.0753376483917236;3.8926913738250732;-3.4197354316711426;-0.9855794906616211;3.960019111633301;-3.422978162765503;-1.011608600616455;3.8839776515960693;-3.394360065460205;-1.0713282823562622;3.9608278274536133;-3.4517757892608643
46;-1.1968196630477905;3.846879720687866;-3.4111337661743164;-1.1131283044815063;3.9215409755706787;-3.415775775909424;-1.1322381496429443;3.8436663150787354;-3.3866357803344727;-1.1990275382995605;3.915006399154663;-3.4433698654174805
47;-1.3041231632232666;3.796515464782715;-3.4031283855438232;-1.2266095876693726;3.8774428367614746;-3.409646511077881;-1.2374024391174316;3.7964885234832764;-3.3849737644195557;-1.31412672996521;3.8663761615753174;-3.429673433303833
48;-1.4260224103927612;3.7256288528442383;-3.3927481174468994;-1.356858491897583;3.8136672973632812;-3.400852918624878;-1.3580939769744873;3.730731964111328;-3.380876302719116;-1.44462251663208;3.795713424682617;-3.413421869277954
49;-1.5283478498458862;3.6571691036224365;-3.3836357593536377;-1.4666889905929565;3.7506039142608643;-3.391895055770874;-1.4603720903396606;3.66707181930542;-3.375730514526367;-1.5534782409667969;3.726379632949829;-3.399872303009033
50;-1.621641993522644;3.590723991394043;-3.3757333755493164;-1.5663658380508423;3.6881215572357178;-3.383373737335205;-1.554131269454956;3.6046907901763916;-3.370394706726074;-1.6517438888549805;3.65867018699646;-3.3884778022766113
51;-1.7135668992996216;3.5226101875305176;-3.3683745861053467;-1.6639378070831299;3.6230711936950684;-3.375053644180298;-1.6467759609222412;3.540135622024536;-3.364757537841797;-1.7477120161056519;3.5890986919403076;-3.3783059120178223
52;-1.804526925086975;3.4532575607299805;-3.3614633083343506;-1.7598415613174438;3.5560741424560547;-3.3671252727508545;-1.7385660409927368;3.473855495452881;-3.3589839935302734;-1.8419811725616455;3.518238067626953;-3.369205951690674
53;-1.8947833776474;3.382960319519043;-3.35495662689209;-1.8544073104858398;3.4875919818878174;-3.3596513271331787;-1.829679250717163;3.40619158744812;-3.3532257080078125;-1.9349689483642578;3.446472644805908;-3.361002206802368
54;-1.9909332990646362;3.3068108558654785;-3.348088026046753;-1.9545302391052246;3.412903070449829;-3.3524861335754395;-1.9267148971557617;3.332428455352783;-3.3471035957336426;-2.0335264205932617;3.368833303451538;-3.353017568588257
55;-2.0932998657226562;3.2243783473968506;-3.335770606994629;-2.0602993965148926;3.3306190967559814;-3.350734233856201;-2.029893636703491;3.251769542694092;-3.3390276432037354;-2.137892961502075;3.284485101699829;-3.344928503036499
56;-2.1826038360595703;3.1508398056030273;-3.324202537536621;-2.1522905826568604;3.255613088607788;-3.3507299423217773;-2.1199028491973877;3.17915678024292;-3.331127166748047;-2.228703260421753;3.208613395690918;-3.3391125202178955
57;-2.271840810775757;3.0743086338043213;-3.3143227100372314;-2.243907928466797;3.17704176902771;-3.3498992919921875;-2.209796905517578;3.103322982788086;-3.3238072395324707;-2.3192367553710938;3.1295182704925537;-3.3340907096862793
58;-2.367405414581299;2.9870550632476807;-3.305568218231201;-2.341676950454712;3.087658643722534;-3.3481950759887695;-2.3059961795806885;3.0166523456573486;-3.3171496391296387;-2.4159722328186035;3.03975510597229;-3.32900333404541
59;-2.462801694869995;2.8929359912872314;-3.2983713150024414;-2.4390079975128174;2.9917306900024414;-3.3460533618927;-2.401965618133545;2.9229660034179688;-3.3117294311523438;-2.5123770236968994;2.9435765743255615;-3.3241209983825684
60;-2.5515997409820557;2.7980761528015137;-3.2928314208984375;-2.5294179916381836;2.89551043510437;-3.3439645767211914;-2.491252899169922;2.828439950942993;-3.3075804710388184;-2.6020021438598633;2.847158432006836;-3.319956064224243
61;-2.627488374710083;2.7109901905059814;-3.288891315460205;-2.6065597534179688;2.807502031326294;-3.3422536849975586;-2.567530393600464;2.741658926010132;-3.30456805229187;-2.6785237789154053;2.758925437927246;-3.3168704509735107
62;-2.7283153533935547;2.5862090587615967;-3.28469181060791;-2.7088980674743652;2.6817893981933594;-3.3402562141418457;-2.668837785720825;2.617316722869873;-3.3013038635253906;-2.7801015377044678;2.6328341960906982;-3.313493013381958
63;-2.8224101066589355;2.4599609375;-3.2817676067352295;-2.804267168045044;2.554917812347412;-3.3388125896453857;-2.7633473873138428;2.4915127754211426;-3.2990105152130127;-2.8748180866241455;2.5055365562438965;-3.311119318008423
64;-2.9035661220550537;2.3431568145751953;-3.279982566833496;-2.8864338397979736;2.4377248287200928;-3.337977886199951;-2.844839334487915;2.3751120567321777;-3.2976248264312744;-2.9564590454101562;2.3879318237304688;-3.3096940517425537
65;-2.9966845512390137;2.199824333190918;-3.2787699699401855;-2.980626344680786;2.2940773963928223;-3.3375794887542725;-2.938321352005005;2.232257127761841;-3.296746253967285;-3.0500848293304443;2.2437775135040283;-3.3087997436523438
66;-3.1014397144317627;2.0262889862060547;-3.2784764766693115;-3.086500406265259;2.120313882827759;-3.337942361831665;-3.043463945388794;2.059267520904541;-3.296710968017578;-3.1553590297698975;2.0694165229797363;-3.308774709701538
67;-3.2355690002441406;1.7841825485229492;-3.279768228530884;-3.221952438354492;1.8780508041381836;-3.339796304702759;-3.178062677383423;1.817860722541809;-3.2982075214385986;-3.2900893688201904;1.8263685703277588;-3.3103153705596924
68;-3.3379223346710205;1.583524465560913;-3.2820308208465576;-3.3252508640289307;1.6773426532745361;-3.34234356880188;-3.2807631492614746;1.6177785396575928;-3.3004894256591797;-3.392857551574707;1.6250033378601074;-3.3128020763397217
69;-3.4506144523620605;1.3450042009353638;-3.2861220836639404;-3.439012050628662;1.4391807317733765;-3.34609055519104;-3.3938963413238525;1.3803455829620361;-3.3038790225982666;-3.5059640407562256;1.3855395317077637;-3.31740403175354
70;-3.5488054752349854;1.1169103384017944;-3.2964723110198975;-3.5398387908935547;1.2173712253570557;-3.3457400798797607;-3.493072986602783;1.1554235219955444;-3.3103246688842773;-3.6052935123443604;1.1592131853103638;-3.323021173477173
71;-3.644536018371582;0.880104660987854;-3.308751344680786;-3.639885425567627;0.9861064553260803;-3.3453855514526367;-3.590336322784424;0.9217059016227722;-3.319380521774292;-3.70298171043396;0.923629879951477;-3.328113079071045
72;-3.748689889907837;0.6082119941711426;-3.321499824523926;-3.7506911754608154;0.7175100445747375;-3.3469948768615723;-3.6970717906951904;0.6535605192184448;-3.329267740249634;-3.8099000453948975;0.6502631306648254;-3.3345470428466797
73;-3.8395845890045166;0.3600224256515503;-3.3316762447357178;-3.849092721939087;0.4703635573387146;-3.3499653339385986;-3.791140079498291;0.40903303027153015;-3.3373615741729736;-3.903615713119507;0.39875349402427673;-3.3409056663513184
74;-3.938002586364746;0.07916776835918427;-3.3424510955810547;-3.957669258117676;0.1890774816274643;-3.353989839553833;-3.8945882320404053;0.13298030197620392;-3.3416318893432617;-4.005002021789551;0.11199291050434113;-3.353351354598999
75;-4.021585464477539;-0.1731458306312561;-3.351796865463257;-4.052218437194824;-0.06529396027326584;-3.3572425842285156;-3.9846556186676025;-0.11537130177021027;-3.342877149581909;-4.090574264526367;-0.14666204154491425;-3.366774797439575
76;-4.119561195373535;-0.4968162477016449;-3.3617992401123047;-4.166015148162842;-0.39462947845458984;-3.361780881881714;-4.09309720993042;-0.43535736203193665;-3.344371795654297;-4.190141677856445;-0.47946643829345703;-3.381866455078125
77;-4.191874027252197;-0.7693865895271301;-3.3680498600006104;-4.252145290374756;-0.6747064590454102;-3.366281747817993;-4.175273418426514;-0.7058737874031067;-3.3463289737701416;-4.263010501861572;-0.7608808875083923;-3.391554832458496
78;-4.254261493682861;-1.045074462890625;-3.372893810272217;-4.328451156616211;-0.9608542919158936;-3.3711929321289062;-4.248561382293701;-0.9805664420127869;-3.348656177520752;-4.324845790863037;-1.0467413663864136;-3.399357557296753
79;-4.300625801086426;-1.293020248413086;-3.3763813972473145;-4.386890411376953;-1.2212005853652954;-3.3757095336914062;-4.305597305297852;-1.2288963794708252;-3.3509912490844727;-4.369332313537598;-1.3049442768096924;-3.4050610065460205
80;-4.332421779632568;-1.5011590719223022;-3.378857135772705;-4.428069114685059;-1.4424116611480713;-3.379486560821533;-4.347023963928223;-1.4386743307113647;-3.3530948162078857;-4.398125648498535;-1.522473692893982;-3.409088373184204
81;-4.3565287590026855;-1.6947970390319824;-3.3809003829956055;-4.459792613983154;-1.6508370637893677;-3.3829355239868164;-4.380632400512695;-1.635321021080017;-3.3551547527313232;-4.417854309082031;-1.7254042625427246;-3.412325382232666
82;-4.376646518707275;-1.892720103263855;-3.38281512260437;-4.485850811004639;-1.866991639137268;-3.386359214782715;-4.410912036895752;-1.8383244276046753;-3.3573548793792725;-4.4313883781433105;-1.9332044124603271;-3.415212869644165
83;-4.394827365875244;-2.0964348316192627;-3.3846960067749023;-4.506921768188477;-2.0933997631073;-3.389767646789551;-4.439766883850098;-2.0501909255981445;-3.3597331047058105;-4.439762115478516;-2.147106885910034;-3.4178385734558105
84;-4.410738945007324;-2.257768392562866;-3.3862035274505615;-4.521321773529053;-2.276017665863037;-3.3924050331115723;-4.463873386383057;-2.220902681350708;-3.361731767654419;-4.4449262619018555;-2.3159985542297363;-3.419755458831787
