id;pos_x[m];pos_y[m];pos_z[m];or_x[rad];or_y[rad];or_z[rad];or_q_x;or_q_y;or_q_z;or_q_w
0;0.0;0.0;-0.07999999076128006;0.0;0.0;1.5707956182169394;-0.0;0.0;0.7071065306663513;0.7071070671081543
1;0.0;0.0;-0.7768863439559937;0.0;0.0;0.0;-0.0;0.0;0.0;1.0
2;0.0;0.0;-0.7762882113456726;0.0;0.0;0.0;-0.0;0.0;0.0;1.0
3;0.0;0.0;-0.7762746810913086;0.0;0.0;0.0;-0.0;0.0;0.0;1.0
4;0.0;0.0;-0.7752885222434998;0.0;0.0;0.0;-0.0;0.0;0.0;1.0
5;0.0;0.0;-0.7755264639854431;0.0;0.0;0.0;-0.0;0.0;0.0;1.0
6;0.0;0.0;-0.7762077450752258;0.0;0.0;0.0;-0.0;0.0;0.0;1.0
7;0.0;0.0;-0.7747827768325806;0.0;0.0;0.0;-0.0;0.0;0.0;1.0
8;0.0;0.0;-0.7758644223213196;0.0;0.0;0.0;-0.0;0.0;0.0;1.0
9;0.0;0.0;-0.7756598591804504;0.0;0.0;0.0;-0.0;0.0;0.0;1.0
10;0.0;0.0;-0.7736932039260864;0.0;0.0;0.0;-0.0;0.0;0.0;1.0
11;0.0;0.0;-0.7772064208984375;0.0;0.0;0.0;-0.0;0.0;0.0;1.0
12;0.0;0.0;-0.7729954123497009;0.0;0.0;0.0;-0.0;0.0;0.0;1.0
13;0.0;0.0;-0.7726237177848816;0.0;0.0;0.0;-0.0;0.0;0.0;1.0
14;0.0;0.0;-0.7723339796066284;0.0;0.0;0.0;-0.0;0.0;0.0;1.0
15;0.0;0.0;-0.7718901634216309;0.0;0.0;0.0;-0.0;0.0;0.0;1.0
16;0.0;0.0;-0.7743868231773376;0.0;0.0;0.0;-0.0;0.0;0.0;1.0
17;0.0;0.0;-0.7712472081184387;0.0;0.0;0.0;-0.0;0.0;0.0;1.0
18;0.0;0.0;-0.7740558385848999;0.0;0.0;0.0;-0.0;0.0;0.0;1.0
19;0.0;0.0;-0.7673408389091492;0.0;0.0;0.0;-0.0;0.0;0.0;1.0
20;0.0;0.0;-0.7737073302268982;0.0;0.0;0.0;-0.0;0.0;0.0;1.0
21;0.0;0.0;-0.7772064208984375;0.0;0.0;0.0;-0.0;0.0;0.0;1.0
22;0.0;0.0;-0.7734277844429016;0.0;0.0;0.0;-0.0;0.0;0.0;1.0
23;0.0;0.0;-0.7693505883216858;0.0;0.0;-0.00029774141588576725;0.0;-0.0;-0.00014887070574332029;1.0
24;0.0;0.0;-0.7690675854682922;0.0;0.0;-0.00614338035849405;0.0;-0.0;-0.0030716853216290474;0.9999952912330627
25;-0.0001333945692749694;-0.005780455190688372;-0.7685632705688477;-0.07090935371903935;-0.00016355516065814262;-0.0254976359411106;-0.03544541075825691;0.0003701787500176579;-0.012743359431624413;0.9992902874946594
26;-0.00041424797382205725;-0.012394552119076252;-0.7589972615242004;-0.14129739655476942;-0.001283168668755824;-0.043322188268060134;-0.07058722525835037;0.000889101589564234;-0.021650642156600952;0.9972702860832214
27;-0.0015943023608997464;-0.029293805360794067;-0.7649351954460144;-0.2821360730777327;-0.00982117818897242;-0.09428554878791491;-0.14067183434963226;0.0017693806439638138;-0.047346290200948715;0.9889219403266907
28;-0.0029455225449055433;-0.04386220499873161;-0.762958824634552;-0.34344975521413956;-0.019158717482395983;-0.13475129397281316;-0.1711220145225525;0.002087155357003212;-0.0679645985364914;0.9829006195068359
29;-0.003906024619936943;-0.05976840853691101;-0.7639703750610352;-0.28506508395214997;-0.029126403972409152;-0.1826041156469783;-0.1427580565214157;-0.00140486191958189;-0.0923011377453804;0.9854434132575989
30;-0.0048617953434586525;-0.07520930469036102;-0.7647848129272461;-0.22552590093068142;-0.03053152466203592;-0.2148854900030167;-0.1134888082742691;-0.003015507012605667;-0.1082504615187645;0.987619936466217
31;-0.006328930146992207;-0.09874209016561508;-0.7708029747009277;-0.1603518173386235;-0.028630968533455446;-0.25042165090945284;-0.08123687654733658;-0.004156369715929031;-0.12560750544071198;0.988739550113678
32;-0.008434265851974487;-0.12988638877868652;-0.7656877040863037;-0.10994123989363681;-0.02353965997782688;-0.27953151233426854;-0.056040555238723755;-0.003983550705015659;-0.13973143696784973;0.9885943531990051
33;-0.010093007236719131;-0.15366576611995697;-0.7712525129318237;-0.08649313304452119;-0.02024329031281156;-0.29788496429161615;-0.04425278678536415;-0.0035849218256771564;-0.14867879450321198;0.9878884553909302
34;-0.012544190511107445;-0.18868379294872284;-0.7654955983161926;-0.061802383161591805;-0.015710948457755135;-0.31682519674214393;-0.031747084110975266;-0.0028795679099857807;-0.15791037678718567;0.9869387149810791
35;-0.014983323402702808;-0.22373022139072418;-0.7653027176856995;-0.04428464049598892;-0.01210939658356083;-0.33231499957516925;-0.022836342453956604;-0.0023079693783074617;-0.16548264026641846;0.9859455227851868
36;-0.017382651567459106;-0.25816580653190613;-0.771142303943634;-0.0326881674319257;-0.009421704924429857;-0.3450065482988911;-0.01690911501646042;-0.001835007918998599;-0.17170003056526184;0.9850023984909058
37;-0.019624657928943634;-0.2903241217136383;-0.764897346496582;-0.024780177932754704;-0.00735723903486476;-0.353646988648575;-0.012843532487750053;-0.0014415846671909094;-0.17593367397785187;0.9843171238899231
38;-0.022252334281802177;-0.328143447637558;-0.7646610140800476;-0.01782080610951353;-0.005478620061650242;-0.3625407722726294;-0.009258082136511803;-0.0010879834881052375;-0.18029546737670898;0.9835683107376099
39;-0.02441239356994629;-0.3592739701271057;-0.7644239664077759;-0.01373285564853353;-0.004320740396494683;-0.3685881928984843;-0.007145965937525034;-0.0008654562989249825;-0.18326246738433838;0.9830376505851746
40;-0.027260886505246162;-0.40034934878349304;-0.7642083764076233;-0.009795638073023489;-0.003136157375108331;-0.37517841622670983;-0.0051042987033724785;-0.000627156172413379;-0.18649601936340332;0.9824422597885132
41;-0.029956016689538956;-0.439289927482605;-0.7639959454536438;-0.00704619023194767;-0.0022976398092763007;-0.3802496412874834;-0.0036767059937119484;-0.00046231382293626666;-0.18898414075374603;0.9819731712341309
42;-0.03249344602227211;-0.4759870767593384;-0.7637559175491333;-0.005222991804583429;-0.0017246007189110526;-0.38418621892041926;-0.0027280827052891254;-0.00034786673495545983;-0.19091540575027466;0.981602668762207
43;-0.03469843417406082;-0.5078943967819214;-0.7635683417320251;-0.004052265740800674;-0.0013411044700660628;-0.38706202300440484;-0.00211726943962276;-0.0002683564671315253;-0.19232606887817383;0.9813287854194641
44;-0.03741525858640671;-0.5472568869590759;-0.763354480266571;-0.002931607408670674;-0.0009795427404607063;-0.390030787571378;-0.0015329268062487245;-0.0001964413677342236;-0.19378210604190826;0.9810433983802795
45;-0.039991140365600586;-0.5846201777458191;-0.7701724171638489;-0.002166747814727137;-0.0007281302981978747;-0.3924739479943442;-0.0011335660237818956;-0.00014584141899831593;-0.1949801743030548;0.9808065295219421
46;-0.042856525629758835;-0.6261891722679138;-0.7629287838935852;-0.0015398391055923642;-0.0005189179803580157;-0.3944883139651717;-0.0008058365783654153;-0.00010354876576457173;-0.19596780836582184;0.9806099534034729
47;-0.045067787170410156;-0.6583049893379211;-0.7627174854278564;-0.001188302371520832;-0.00040113928919363064;-0.39585842304700447;-0.000621990708168596;-7.982015085872263e-05;-0.19663946330547333;0.9804757237434387
48;-0.047644685953855515;-0.6957705616950989;-0.7698626518249512;-0.0008825715240964361;-0.00029778476136236394;-0.3972730089791911;-0.0004619898973032832;-5.8884463214781135e-05;-0.19733287394046783;0.9803364276885986
49;-0.050508830696344376;-0.7374169230461121;-0.7623525857925415;-0.0006242450407852371;-0.0002110004131577332;-0.39843886723906685;-0.00032682809978723526;-4.1643172153271735e-05;-0.1979042887687683;0.9802212715148926
50;-0.05271759256720543;-0.7695697546005249;-0.7621580958366394;-0.0004820322174796642;-0.00016355513586443875;-0.39923152687768226;-0.0002524461015127599;-3.236195334466174e-05;-0.19829274713993073;0.9801428318023682
51;-0.055434539914131165;-0.8091461062431335;-0.761981725692749;-0.0003515372338420095;-0.00011825561770319241;-0.4000512848761354;-0.00018401241686660796;-2.3024636902846396e-05;-0.19869446754455566;0.9800614714622498
52;-0.05814932659268379;-0.8487230539321899;-0.7618224024772644;-0.00025513087991975127;-8.523463434772995e-05;-0.40072603023288156;-0.0001334953267360106;-1.6376008716179058e-05;-0.19902509450912476;0.9799944162368774
53;-0.06035330146551132;-0.8808785676956177;-0.7616437077522278;-0.00019600865812873167;-6.604194451642427e-05;-0.4011846379129946;-0.00010261863644700497;-1.2831516869482584e-05;-0.19924980401992798;0.9799487590789795
54;-0.06292014569044113;-0.9183685779571533;-0.769347071647644;-0.000145941222851034;-4.8518179425868984e-05;-0.4016586796967632;-7.634326175320894e-05;-9.215189493261278e-06;-0.19948206841945648;0.9799014925956726
55;-0.06562850624322891;-0.9579406380653381;-0.7692795395851135;-0.00010546117008111865;-3.576278283894417e-05;-0.4020491940922975;-5.523916115635075e-05;-6.992409907979891e-06;-0.19967339932918549;0.9798625111579895
56;-0.06847816705703735;-0.9995930790901184;-0.7611939907073975;-7.51011273042858e-05;-2.5033948875519887e-05;-0.4023713178898051;-3.929446393158287e-05;-4.760736374009866e-06;-0.19983121752738953;0.9798303246498108
57;-0.07067473977804184;-1.0317376852035522;-0.7610558271408081;-5.805691066817315e-05;-1.9669530761692427e-05;-0.402590801297792;-3.040867522940971e-05;-3.832272795989411e-06;-0.19993874430656433;0.9798083901405334
58;-0.07354464381933212;-1.0737662315368652;-0.760911226272583;-4.1545308181381994e-05;-1.382827725351794e-05;-0.4028294288870457;-2.1735937480116263e-05;-2.6186794457316864e-06;-0.20005564391613007;0.9797845482826233
59;-0.07624295353889465;-1.1133147478103638;-0.7607710957527161;-2.9827400629215303e-05;-9.655952113341927e-06;-0.40301368301466334;-1.557823816256132e-05;-1.7453710370318731e-06;-0.2001459151506424;0.9797660708427429
60;-0.07826478034257889;-1.1429709196090698;-0.7606446743011475;-2.343581740758681e-05;-7.987021698247164e-06;-0.4031303553171555;-1.2280185728741344e-05;-1.5666987565055024e-06;-0.2002030611038208;0.9797544479370117
61;-0.08095824718475342;-1.1825047731399536;-0.7605218291282654;-1.7044225328147188e-05;-5.8412548227950405e-06;-0.4032614096447712;-8.934372090152465e-06;-1.1547590474947356e-06;-0.2002672702074051;0.9797412753105164
62;-0.08350580930709839;-1.2199469804763794;-0.7688067555427551;-1.2783171753749196e-05;-4.291534084001407e-06;-0.4033695950000323;-6.6918719312525354e-06;-8.21909225123818e-07;-0.2003202587366104;0.979730486869812
63;-0.08633668720722198;-1.2615455389022827;-0.7602953910827637;-9.05474606962685e-06;-3.2186504547158964e-06;-0.40345843423401634;-4.7580156206095126e-06;-6.695690331071091e-07;-0.20036378502845764;0.9797215461730957
64;-0.088518425822258;-1.2936450242996216;-0.760174036026001;-7.456850503484131e-06;-2.145766936432595e-06;-0.40351918393506386;-3.867794930556556e-06;-3.0396819283851073e-07;-0.20039354264736176;0.9797154664993286
65;-0.0912010446190834;-1.333143949508667;-0.7600564360618591;-5.32632151255084e-06;-1.6689299062739117e-06;-0.40358154023634535;-2.7763701382355066e-06;-2.8377144190017134e-07;-0.20042409002780914;0.9797092080116272
66;-0.09388086199760437;-1.372633457183838;-0.7599586248397827;-3.7284253405952204e-06;-1.0728835751275248e-06;-0.4036331798704855;-1.933906105477945e-06;-1.5187393387350312e-07;-0.2004493772983551;0.9797040820121765
67;-0.09588882327079773;-1.402244210243225;-0.7598634958267212;-3.1957935927655403e-06;-1.0728834445637216e-06;-0.4022882480139829;-1.6728570244595176e-06;-2.0638168507502996e-07;-0.19979052245616913;0.9798386096954346
68;-0.09856364876031876;-1.4417173862457275;-0.7597482204437256;-2.1305286164876324e-06;-5.960464052892593e-07;-0.38703425400877944;-1.1026933179891785e-06;-8.759764114074642e-08;-0.19231155514717102;0.9813339114189148
69;-0.10123559087514877;-1.4811807870864868;-0.7596368193626404;-1.5978964124457207e-06;-5.960463532872453e-07;-0.3540645205235973;-8.389457661905908e-07;-1.5266330422036845e-07;-0.17610900104045868;0.9843706488609314
70;-0.10326233506202698;-1.5111576318740845;-0.7683731913566589;-1.0652643149688112e-06;3.3657624959131625e-15;-0.31423668395236753;-5.260713464849687e-07;8.334239254281783e-08;-0.15647269785404205;0.9876822829246521
71;-0.10607171058654785;-1.552682876586914;-0.7594460844993591;-1.065264355258202e-06;-2.6411918781069944e-15;-0.24972072170893714;-5.284856570142438e-07;6.63319710270116e-08;-0.1245361790060997;0.992215096950531
72;-0.10873652994632721;-1.5921180248260498;-0.7593452334403992;-5.326321001214008e-07;1.6542146884061804e-15;-0.17004254114066653;-2.6535408892414125e-07;2.2615262551539672e-08;-0.08491887897253036;0.9963878393173218
73;-0.11139961332082748;-1.6315422058105469;-0.759247899055481;-5.326321853125912e-07;3.860324069749504e-16;-0.07780375274187888;-2.6611459702508e-07;1.03575823473534e-08;-0.03889206424355507;0.999243438243866
74;-0.11339631676673889;-1.6611030101776123;-0.7591539621353149;-5.326322670997456e-07;1.1920928666728189e-07;-0.0017321198386130393;-2.6626440785548766e-07;5.983526563113628e-08;-0.0008660597959533334;0.9999996423721313
75;-0.11605866253376007;-1.7005083560943604;-0.7590692639350891;1.8247290697966512e-08;1.1920928035410477e-07;0.10738806961213902;5.911620526433126e-09;6.000838936870423e-08;0.05366823822259903;0.9985588192939758
76;-0.11808039993047714;-1.73043954372406;-0.7681041359901428;1.0525714211361946e-15;1.1920928435916561e-07;0.20153206800215484;-5.995963725524689e-09;5.930229107775631e-08;0.10059559345245361;0.9949274063110352
77;-0.12074464559555054;-1.7698264122009277;-0.7680699825286865;1.880258540732715e-09;1.1920928407581236e-07;0.3216586701691177;-8.616905411429343e-09;5.8985982320791663e-08;0.1601368933916092;0.9870948195457458
78;-0.12355256080627441;-1.8112804889678955;-0.7588644027709961;3.283808958161744e-10;1.1920928556630061e-07;0.42943548960311984;-1.2539639548947434e-08;5.8270899216950056e-08;0.21307165920734406;0.9770365953445435
79;-0.12607768177986145;-1.8485724925994873;-0.7679966688156128;1.6081593894816073e-15;1.1920928796861737e-07;0.5196093623786847;-1.5311941936602125e-08;5.760432131296511e-08;0.25689178705215454;0.9664402008056641
80;-0.12888821959495544;-1.8900089263916016;-0.7587171196937561;4.880269482015196e-10;1.1920927782837673e-07;0.5939068790329347;-1.7207481661785096e-08;5.706728600785027e-08;0.2926083505153656;0.9562323689460754
81;-0.1310567706823349;-1.9219831228256226;-0.7586520314216614;8.893475686977852e-11;1.1920928557978477e-07;0.6444970309347573;-1.8834619197605207e-08;5.655061841025599e-08;0.31670013070106506;0.9485257267951965
82;-0.13358376920223236;-1.9592536687850952;-0.7678964734077454;9.137592382236852e-16;1.1920927953944141e-07;0.6967378954684839;-2.034694901453804e-08;5.6024234140750195e-08;0.34136518836021423;0.9399307370185852
83;-0.1362529993057251;-1.9985926151275635;-0.7678683996200562;1.2428429649859625e-10;1.1920928055912096e-07;0.7397554427818142;-2.1489222845616496e-08;5.5596135695168414e-08;0.36150142550468445;0.9323715567588806
84;-0.1389218270778656;-2.03792405128479;-0.7678365707397461;1.242881428514928e-10;1.1920927180866594e-07;0.7751709986286268;-2.247028518809202e-08;5.520691104266007e-08;0.3779541254043579;0.9258242845535278
85;-0.14159005880355835;-2.0772480964660645;-0.7678080797195435;4.55807542651043e-12;-6.071055270446294e-20;0.8043365179920725;2.097203487261279e-12;8.920484251447036e-13;0.3914145231246948;0.9202144742012024
86;-0.14389948546886444;-2.1112678050994873;-0.7583481669425964;0.0;0.0;0.8241935359585486;-0.0;0.0;0.40053144097328186;0.9162830114364624
87;-0.1463993936777115;-2.1481215953826904;-0.7582908272743225;0.0;0.0;0.8435314752619874;-0.0;0.0;0.40937209129333496;0.9123675227165222
88;-0.14906485378742218;-2.187424898147583;-0.7582394480705261;8.871024461125608e-10;1.6961131665246694e-17;0.8606237256452657;4.031151801253685e-10;1.8502928356145532e-10;0.4171542525291443;0.9088357090950012
89;-0.15172907710075378;-2.2267205715179443;-0.7581859230995178;0.0;0.0;0.874697181144308;-0.0;0.0;0.42353910207748413;0.9058778285980225
90;-0.15439197421073914;-2.2660090923309326;-0.7581306099891663;0.0;0.0;0.8862849055815045;-0.0;0.0;0.4287804961204529;0.9034087061882019
91;-0.15602685511112213;-2.2953720092773438;-0.7676438689231873;-2.6633836394897987e-06;-0.007694959381664689;0.8941752143550175;0.001662219176068902;-0.0034698783420026302;0.43233802914619446;0.901703417301178
92;-0.15205475687980652;-2.3262839317321777;-0.7668874859809875;-0.00031531217888136127;-0.13572859839734164;0.9023778585190517;0.029426997527480125;-0.06109478697180748;0.4350224435329437;0.8978624939918518
93;-0.147157222032547;-2.3600306510925293;-0.7554307579994202;-0.0013672924721389904;-0.2526392817916287;0.9097264805867514;0.05474047362804413;-0.11347199231386185;0.4357614517211914;0.8912011981010437
94;-0.1420934945344925;-2.380746603012085;-0.7633443474769592;-0.0023286833564210236;-0.32455350371427133;0.9145964764067213;0.0703042596578598;-0.14547163248062134;0.43555572628974915;0.8855430483818054
95;-0.13666699826717377;-2.4119045734405518;-0.7639793753623962;-0.003200079780919513;-0.29528650372547044;0.9198086122526233;0.0638771802186966;-0.1325245350599289;0.4388218820095062;0.8864492774009705
96;-0.12982186675071716;-2.43648362159729;-0.7557839751243591;-0.003209111574294182;-0.21151825968054622;0.923183196924349;0.04558591544628143;-0.09522497653961182;0.4427330493927002;0.8904165029525757
97;-0.11606565862894058;-2.4551260471343994;-0.7664288282394409;-0.0029305329512917476;-0.15187859240090923;0.9266732056485636;0.03260030969977379;-0.06852037459611893;0.4455474019050598;0.8920368552207947
98;-0.10101806372404099;-2.4669137001037598;-0.7569060325622559;-0.002504962264434061;-0.11535905790777978;0.9289106303366224;0.024704448878765106;-0.05210075527429581;0.4471260607242584;0.892610490322113
99;-0.08311912417411804;-2.4754014015197754;-0.7570977807044983;-0.002096438408990063;-0.0864637930406341;0.9309824462018708;0.01846327818930149;-0.03909008577466011;0.44840168952941895;0.8927860856056213
100;-0.060328010469675064;-2.482107639312744;-0.7572055459022522;-0.0016639419534637732;-0.06247508308298436;0.9329787450042676;0.013304189778864384;-0.028269346803426743;0.44951075315475464;0.8927283883094788
101;-0.04044165834784508;-2.4858028888702393;-0.7572457194328308;-0.0013555465859371918;-0.04793846040332643;0.93434959467222;0.01018891017884016;-0.021703893318772316;0.4502216577529907;0.8925948143005371
102;-0.014200623147189617;-2.4884393215179443;-0.7672128677368164;-0.0010423627740389632;-0.03461789862223702;0.9358559816754649;0.007341515738517046;-0.015682583674788475;0.4509623050689697;0.8923749923706055
103;0.007103270851075649;-2.4903159141540527;-0.7672227025032043;-0.0008341021163384292;-0.026648639777826222;0.9368166809211533;0.005643210373818874;-0.012077045626938343;0.4514215588569641;0.8922112584114075
104;0.03477802872657776;-2.4926536083221436;-0.7572612762451172;-0.0006157222948232987;-0.01888870995618513;0.9378102143144686;0.003993313759565353;-0.008563959039747715;0.4518870711326599;0.8920251131057739
105;0.061739206314086914;-2.4940078258514404;-0.7572495937347412;-0.0004575307555808529;-0.013601900505918484;0.9386298967731176;0.002871852135285735;-0.006169035565108061;0.4522635340690613;0.8918584585189819
106;0.08382817357778549;-2.4948697090148926;-0.7572348713874817;-0.0003616570624756006;-0.010505675867247974;0.9391890499707637;0.0022157758940011263;-0.0047660344280302525;0.45251762866973877;0.8917400240898132
107;0.11006902158260345;-2.4952449798583984;-0.7672109603881836;-0.00027270730289752755;-0.007735966179226051;0.9397668438225935;0.0016297752736136317;-0.0035105047281831503;0.45277848839759827;0.8916146159172058
108;0.13862766325473785;-2.4964332580566406;-0.7572037577629089;-0.00019600867588115943;-0.005463242155700213;0.9402417179714115;0.001150034717284143;-0.0024796694051474333;0.45299211144447327;0.8915103077888489
109;0.1599057912826538;-2.4964303970336914;-0.7671974301338196;-0.00015712674472959833;-0.004302620797665889;0.9405664138520305;0.0009048071224242449;-0.0019533627200871706;0.4531375765800476;0.8914379477500916
110;0.19035018980503082;-2.497434616088867;-0.7571717500686646;-0.00011078745778939871;-0.00297844381447133;0.9409197690773086;0.0006256827618926764;-0.00135254196356982;0.45329567790031433;0.8913589715957642
